=~=~=~=~=~=~=~=~=~=~=~= PuTTY log 2023.06.17 16:31:01 =~=~=~=~=~=~=~=~=~=~=~=
3388,19.00
ESP-ROM:esp32s3-20210327
Build:Mar 27 2021
rst:0x1 (POWERON),boot:0x8 (SPI_FAST_FLASH_BOOT)
SPIWP:0xee
mode:DIO, clock div:1
load:0x3fce3808,len:0x43c
load:0x403c9700,len:0xbec
load:0x403cc700,len:0x2a3c
entry 0x403c98d8
86,749.00
90,29.00
94,24.00
98,21.00
102,9.00
106,13.00
110,20.00
114,24.00
118,34.00
122,8.00
126,24.00
130,17.00
134,18.00
138,13.00
142,4.00
146,5.00
150,24.00
154,10.00
158,19.00
162,21.00
166,25.00
170,10.00
174,24.00
178,21.00
182,6.00
186,13.00
190,22.00
194,6.00
198,15.00
202,19.00
206,7.00
210,22.00
214,15.00
218,0.00
222,9.00
ESP-ROM:esp32s3-20210327
Build:Mar 27 2021
rst:0x1 (POWERON),boot:0x8 (SPI_FAST_FLASH_BOOT)
SPIWP:0xee
mode:DIO, clock div:1
load:0x3fce3808,len:0x43c
load:0x403c9700,len:0xbec
load:0x403cc700,len:0x2a3c
entry 0x403c98d8
86,671.00
92,30.00
96,21.00
100,5.00
104,15.00
108,13.00
112,24.00
116,18.00
120,31.00
124,23.00
128,31.00
132,0.00
136,13.00
140,10.00
144,19.00
148,11.00
152,5.00
156,22.00
160,20.00
164,23.00
168,17.00
172,21.00
176,26.00
180,35.00
184,1.00
188,0.00
192,24.00
196,38.00
200,10.00
204,23.00
208,15.00
212,38.00
216,6.00
220,14.00
224,14.00
228,15.00
232,7.00
236,10.00
240,4.00
244,23.00
248,15.00
252,23.00
256,15.00
260,34.00
264,9.00
268,23.00
272,18.00
276,18.00
280,22.00
284,4.00
288,9.00
292,12.00
296,10.00
300,11.00
304,10.00
308,21.00
312,13.00
316,20.00
320,13.00
324,14.00
328,26.00
332,7.00
336,4.00
340,15.00
344,7.00
348,23.00
352,15.00
356,17.00
360,25.00
364,8.00
368,20.00
372,7.00
376,5.00
380,8.00
384,4.00
388,7.00
392,15.00
396,15.00
400,13.00
404,13.00
408,22.00
412,11.00
416,7.00
420,18.00
424,18.00
428,14.00
432,9.00
436,19.00
440,7.00
444,15.00
448,17.00
452,24.00
456,23.00
460,23.00
464,19.00
468,7.00
472,5.00
476,9.00
480,23.00
484,2.00
488,8.00
492,28.00
496,17.00
500,15.00
504,4.00
508,22.00
512,15.00
516,15.00
520,13.00
524,23.00
528,14.00
532,6.00
536,13.00
540,18.00
544,31.00
548,21.00
552,15.00
556,13.00
560,8.00
564,23.00
568,14.00
572,5.00
576,44.00
580,19.00
584,0.00
588,10.00
592,18.00
596,5.00
600,5.00
604,21.00
608,15.00
612,19.00
616,7.00
620,18.00
624,13.00
628,26.00
632,9.00
636,7.00
640,20.00
644,24.00
648,17.00
652,15.00
656,15.00
660,23.00
664,13.00
668,7.00
672,0.00
676,21.00
680,18.00
684,3.00
688,8.00
692,23.00
696,5.00
700,15.00
704,19.00
708,10.00
712,24.00
716,15.00
720,13.00
724,9.00
728,24.00
732,8.00
736,17.00
740,8.00
744,34.00
748,18.00
752,9.00
756,32.00
760,10.00
764,0.00
768,8.00
772,25.00
776,6.00
780,34.00
784,7.00
788,9.00
792,2.00
796,20.00
800,2.00
804,17.00
808,4.00
812,21.00
816,9.00
820,15.00
824,23.00
828,19.00
832,1.00
836,20.00
840,24.00
844,37.00
848,3.00
852,21.00
856,26.00
860,18.00
864,10.00
868,19.00
872,26.00
876,19.00
880,21.00
884,0.00
888,17.00
892,9.00
896,0.00
900,4.00
904,22.00
908,34.00
912,32.00
916,2.00
920,18.00
924,22.00
928,23.00
932,10.00
936,19.00
940,14.00
944,25.00
948,2.00
952,20.00
956,15.00
960,12.00
964,19.00
968,19.00
972,19.00
976,23.00
980,9.00
984,13.00
988,14.00
992,17.00
996,9.00
1000,18.00
1004,19.00
1008,9.00
1012,23.00
1016,0.00
1020,14.00
1024,14.00
1028,23.00
1032,13.00
1036,18.00
1040,19.00
1044,34.00
1048,15.00
1052,21.00
1056,9.00
1060,29.00
1064,15.00
1068,14.00
1072,10.00
1076,21.00
1080,15.00
1084,7.00
1088,20.00
1092,10.00
1096,20.00
1100,0.00
1104,19.00
1108,9.00
1112,18.00
1116,9.00
1120,8.00
1124,18.00
1128,22.00
1132,12.00
1136,19.00
1140,18.00
1144,23.00
1148,9.00
1152,10.00
1156,19.00
1160,23.00
1164,18.00
1168,26.00
1172,7.00
1176,11.00
1180,26.00
1184,1.00
1188,29.00
1192,18.00
1196,25.00
1200,19.00
1204,9.00
1208,25.00
1212,12.00
1216,21.00
1220,18.00
1224,24.00
1228,23.00
1232,10.00
1236,22.00
1240,5.00
1244,15.00
1248,14.00
1252,20.00
1256,23.00
1260,9.00
1264,9.00
1268,6.00
1272,10.00
1276,32.00
1280,18.00
1284,13.00
1288,19.00
1292,21.00
1296,29.00
1300,10.00
1304,19.00
1308,30.00
1312,14.00
1316,8.00
1320,21.00
1324,9.00
1328,21.00
1332,7.00
1336,22.00
1340,14.00
1344,23.00
1348,9.00
1352,20.00
1356,2.00
1360,19.00
1364,13.00
1368,19.00
1372,19.00
1376,23.00
1380,9.00
1384,4.00
1388,15.00
1392,18.00
1396,23.00
1400,7.00
1404,18.00
1408,21.00
1412,17.00
1416,13.00
1420,5.00
1424,10.00
1428,24.00
1432,9.00
1436,13.00
1440,10.00
1444,23.00
1448,18.00
1452,13.00
1456,20.00
1460,22.00
1464,7.00
1468,31.00
1472,14.00
1476,17.00
1480,7.00
1484,9.00
1488,19.00
1492,15.00
1496,14.00
1500,14.00
1504,18.00
1508,15.00
1512,23.00
1516,13.00
1520,15.00
1524,22.00
1528,24.00
1532,9.00
1536,23.00
1540,10.00
1544,22.00
1548,13.00
1552,7.00
1556,23.00
1560,17.00
1564,4.00
1568,13.00
1572,14.00
1576,25.00
1580,18.00
1584,18.00
1588,23.00
1592,18.00
1596,18.00
1600,17.00
1604,9.00
1608,19.00
1612,20.00
1616,20.00
1620,14.00
1624,7.00
1628,23.00
1632,10.00
1636,4.00
1640,22.00
1644,26.00
1648,14.00
1652,4.00
1656,24.00
1660,24.00
1664,10.00
1668,19.00
1672,10.00
1676,31.00
1680,20.00
1684,9.00
1688,23.00
1692,22.00
1696,9.00
1700,8.00
1704,21.00
1708,10.00
1712,31.00
1716,9.00
1720,19.00
1724,19.00
1728,24.00
1732,10.00
1736,11.00
1740,9.00
1744,21.00
1748,4.00
1752,14.00
1756,19.00
1760,19.00
1764,9.00
1768,19.00
1772,13.00
1776,19.00
1780,12.00
1784,23.00
1788,22.00
1792,18.00
1796,7.00
1800,10.00
1804,26.00
1808,13.00
1812,13.00
1816,8.00
1820,17.00
1824,11.00
1828,25.00
1832,13.00
1836,21.00
1840,21.00
1844,30.00
1848,4.00
1852,14.00
1856,26.00
1860,31.00
1864,21.00
1868,21.00
1872,13.00
1876,25.00
1880,22.00
1884,11.00
1888,7.00
1892,13.00
1896,15.00
1900,14.00
1904,25.00
1908,15.00
1912,35.00
1916,9.00
1920,29.00
1924,18.00
1928,18.00
1932,6.00
1936,15.00
1940,15.00
1944,22.00
1948,14.00
1952,7.00
1956,7.00
1960,19.00
1964,5.00
1968,19.00
1972,26.00
1976,29.00
1980,13.00
1984,14.00
1988,13.00
1992,23.00
1996,15.00
2000,7.00
2004,9.00
2008,14.00
2012,24.00
2016,8.00
2020,15.00
2024,9.00
2028,14.00
2032,9.00
2036,17.00
2040,13.00
2044,23.00
2048,13.00
2052,19.00
2056,10.00
2060,24.00
2064,7.00
2068,13.00
2072,13.00
2076,23.00
2080,15.00
2084,7.00
2088,19.00
2092,9.00
2096,24.00
2100,19.00
2104,17.00
2108,13.00
2112,21.00
2116,5.00
2120,4.00
2124,21.00
2128,13.00
2132,7.00
2136,18.00
2140,21.00
2144,21.00
2148,13.00
2152,9.00
2156,10.00
2160,21.00
2164,17.00
2168,10.00
2172,7.00
2176,14.00
2180,5.00
2184,18.00
2188,13.00
2192,10.00
2196,15.00
2200,9.00
2204,18.00
2208,5.00
2212,13.00
2216,10.00
2220,9.00
2224,10.00
2228,22.00
2232,14.00
2236,17.00
2240,9.00
2244,21.00
2248,4.00
2252,7.00
2256,17.00
2260,19.00
2264,19.00
2268,0.00
2272,8.00
2276,23.00
2280,26.00
2284,4.00
2288,29.00
2292,24.00
2296,21.00
2300,23.00
2304,22.00
2308,15.00
2312,23.00
2316,9.00
2320,22.00
2324,20.00
2328,25.00
2332,15.00
2336,17.00
2340,18.00
2344,14.00
2348,5.00
2352,21.00
2356,23.00
2360,21.00
2364,14.00
2368,14.00
2372,23.00
2376,17.00
2380,34.00
2384,9.00
2388,10.00
2392,13.00
2396,29.00
2400,8.00
2404,9.00
2408,13.00
2412,19.00
2416,0.00
2420,13.00
2424,24.00
2428,24.00
2432,0.00
2436,15.00
2440,17.00
2444,15.00
2448,18.00
2452,15.00
2456,13.00
2460,24.00
2464,15.00
2468,0.00
2472,21.00
2476,23.00
2480,13.00
2484,15.00
2488,14.00
2492,19.00
2496,14.00
2500,17.00
2504,21.00
2508,19.00
2512,15.00
2516,8.00
2520,5.00
2524,17.00
2528,23.00
2532,9.00
2536,19.00
2540,22.00
2544,29.00
2548,23.00
2552,21.00
2556,18.00
2560,34.00
2564,21.00
2568,6.00
2572,2.00
2576,22.00
2580,15.00
2584,21.00
2588,21.00
2592,7.00
2596,23.00
2600,9.00
2604,13.00
2608,14.00
2612,17.00
2616,9.00
2620,9.00
2624,14.00
2628,4.00
2632,6.00
2636,23.00
2640,15.00
2644,15.00
2648,20.00
2652,18.00
2656,18.00
2660,26.00
2664,20.00
2668,5.00
2672,2.00
2676,25.00
2680,21.00
2684,12.00
2688,19.00
2692,13.00
2696,21.00
2700,13.00
2704,23.00
2708,15.00
2712,18.00
2716,9.00
2720,14.00
2724,17.00
2728,20.00
2732,7.00
2736,20.00
2740,14.00
2744,25.00
2748,13.00
2752,20.00
2756,18.00
2760,31.00
2764,18.00
2768,13.00
2772,21.00
2776,20.00
2780,25.00
2784,9.00
2788,7.00
2792,21.00
2796,34.00
2800,3.00
2804,0.00
2808,9.00
2812,19.00
2816,14.00
2820,18.00
2824,24.00
2828,19.00
2832,13.00
2836,13.00
2840,25.00
2844,19.00
2848,9.00
2852,23.00
2856,18.00
2860,26.00
2864,15.00
2868,2.00
2872,10.00
2876,15.00
2880,9.00
2884,5.00
2888,10.00
2892,17.00
2896,26.00
2900,10.00
2904,10.00
2908,18.00
2912,13.00
2916,10.00
2920,17.00
2924,17.00
2928,26.00
2932,4.00
2936,20.00
2940,13.00
2944,13.00
2948,19.00
2952,23.00
2956,14.00
2960,24.00
2964,10.00
2968,5.00
2972,22.00
2976,1.00
2980,23.00
2984,7.00
2988,26.00
2992,18.00
2996,13.00
3000,4.00
3004,11.00
3008,18.00
3012,34.00
3016,18.00
3020,18.00
3024,19.00
3028,19.00
3032,13.00
3036,18.00
3040,7.00
3044,15.00
3048,14.00
3052,7.00
3056,13.00
3060,14.00
3064,15.00
3068,8.00
3072,13.00
3076,9.00
3080,32.00
3084,4.00
3088,10.00
3092,19.00
3096,11.00
3100,5.00
3104,10.00
3108,20.00
3112,19.00
3116,5.00
3120,15.00
3124,21.00
3128,21.00
3132,18.00
3136,7.00
3140,17.00
3144,15.00
3148,6.00
3152,23.00
3156,13.00
3160,21.00
3164,19.00
3168,2.00
3172,20.00
3176,18.00
3180,22.00
3184,14.00
3188,15.00
3192,9.00
3196,21.00
3200,0.00
3204,24.00
3208,17.00
3212,13.00
3216,13.00
3220,18.00
3224,21.00
3228,19.00
3232,9.00
3236,17.00
3240,15.00
3244,21.00
3248,13.00
3252,19.00
3256,20.00
3260,30.00
3264,19.00
3268,5.00
3272,18.00
3276,15.00
3280,14.00
3284,14.00
3288,20.00
3292,22.00
3296,25.00
3300,7.00
3304,4.00
3308,6.00
3312,26.00
3316,18.00
3320,19.00
3324,18.00
3328,23.00
3332,18.00
3336,7.00
3340,13.00
3344,25.00
3348,13.00
3352,4.00
3356,14.00
3360,23.00
3364,17.00
3368,4.00
3372,13.00
3376,9.00
3380,19.00
3384,8.00
3388,17.00
3392,24.00
3396,9.00
3400,13.00
3404,15.00
3408,10.00
3412,23.00
3416,19.00
3420,13.00
3424,20.00
3428,43.00
3432,9.00
3436,7.00
3440,19.00
3444,24.00
3448,21.00
3452,20.00
3456,19.00
3460,8.00
3464,11.00
3468,5.00
3472,12.00
3476,18.00
3480,20.00
3484,9.00
3488,25.00
3492,5.00
3496,10.00
3500,19.00
3504,13.00
3508,10.00
3512,19.00
3516,7.00
3520,15.00
3524,13.00
3528,25.00
3532,10.00
3536,9.00
3540,28.00
3544,20.00
3548,19.00
3552,7.00
3556,13.00
3560,34.00
3564,17.00
3568,7.00
3572,7.00
3576,19.00
3580,21.00
3584,22.00
3588,15.00
3592,12.00
3596,21.00
3600,14.00
3604,18.00
3608,23.00
3612,22.00
3616,10.00
3620,20.00
3624,9.00
3628,24.00
3632,18.00
3636,4.00
3640,25.00
3644,9.00
3648,19.00
3652,19.00
3656,15.00
3660,19.00
3664,14.00
3668,9.00
3672,0.00
3676,13.00
3680,23.00
3684,20.00
3688,20.00
3692,19.00
3696,21.00
3700,7.00
3704,15.00
3708,2.00
3712,13.00
3716,9.00
3720,18.00
3724,17.00
3728,18.00
3732,7.00
3736,21.00
3740,19.00
3744,21.00
3748,21.00
3752,15.00
3756,25.00
3760,15.00
3764,23.00
3768,8.00
3772,9.00
3776,18.00
3780,18.00
3784,10.00
3788,21.00
3792,9.00
3796,18.00
3800,18.00
3804,15.00
3808,10.00
3812,23.00
3816,5.00
3820,14.00
3824,11.00
3828,29.00
3832,13.00
3836,2.00
3840,9.00
3844,19.00
3848,21.00
3852,21.00
3856,8.00
3860,29.00
3864,21.00
3868,5.00
3872,19.00
3876,21.00
3880,21.00
3884,8.00
3888,9.00
3892,24.00
3896,14.00
3900,13.00
3904,7.00
3908,9.00
3912,17.00
3916,7.00
3920,15.00
3924,18.00
3928,20.00
3932,9.00
3936,17.00
3940,14.00
3944,18.00
3948,19.00
3952,19.00
3956,4.00
3960,28.00
3964,25.00
3968,7.00
3972,11.00
3976,20.00
3980,19.00
3984,4.00
3988,20.00
3992,13.00
3996,26.00
4000,10.00
4004,15.00
4008,15.00
4012,19.00
4016,9.00
4020,9.00
4024,20.00
4028,18.00
4032,6.00
4036,19.00
4040,19.00
4044,20.00
4048,13.00
4052,8.00
4056,30.00
4060,31.00
4064,15.00
4068,0.00
4072,21.00
4076,29.00
4080,4.00
4084,13.00
4088,9.00
4092,9.00
4096,19.00
4100,7.00
4104,25.00
4108,22.00
4112,15.00
4116,20.00
4120,7.00
4124,10.00
4128,17.00
4132,8.00
4136,15.00
4140,31.00
4144,19.00
4148,23.00
4152,15.00
4156,13.00
4160,23.00
4164,19.00
4168,15.00
4172,14.00
4176,28.00
4180,18.00
4184,15.00
4188,18.00
4192,15.00
4196,21.00
4200,17.00
4204,15.00
4208,18.00
4212,25.00
4216,9.00
4220,13.00
4224,18.00
4228,26.00
4232,19.00
4236,6.00
4240,5.00
4244,23.00
4248,13.00
4252,9.00
4256,10.00
4260,14.00
4264,15.00
4268,9.00
4272,23.00
4276,15.00
4280,13.00
4284,5.00
4288,11.00
4292,19.00
4296,17.00
4300,19.00
4304,9.00
4308,14.00
4312,24.00
4316,9.00
4320,18.00
4324,22.00
4328,20.00
4332,11.00
4336,10.00
4340,19.00
4344,24.00
4348,13.00
4352,0.00
4356,23.00
4360,19.00
4364,18.00
4368,19.00
4372,13.00
4376,13.00
4380,23.00
4384,9.00
4388,22.00
4392,21.00
4396,25.00
4400,2.00
4404,10.00
4408,0.00
4412,23.00
4416,0.00
4420,31.00
4424,13.00
4428,19.00
4432,9.00
4436,5.00
4440,14.00
4444,34.00
4448,21.00
4452,13.00
4456,19.00
4460,34.00
4464,15.00
4468,8.00
4472,23.00
4476,21.00
4480,19.00
4484,18.00
4488,8.00
4492,19.00
4496,31.00
4500,18.00
4504,14.00
4508,21.00
4512,15.00
4516,19.00
4520,13.00
4524,20.00
4528,24.00
4532,7.00
4536,13.00
4540,18.00
4544,20.00
4548,19.00
4552,13.00
4556,13.00
4560,29.00
4564,17.00
4568,18.00
4572,19.00
4576,25.00
4580,8.00
4584,13.00
4588,9.00
4592,13.00
4596,21.00
4600,13.00
4604,15.00
4608,9.00
4612,22.00
4616,9.00
4620,34.00
4624,17.00
4628,22.00
4632,5.00
4636,13.00
4640,19.00
4644,24.00
4648,10.00
4652,9.00
4656,5.00
4660,26.00
4664,8.00
4668,19.00
4672,24.00
4676,24.00
4680,21.00
4684,20.00
4688,15.00
4692,13.00
4696,19.00
4700,9.00
4704,7.00
4708,19.00
4712,24.00
4716,9.00
4720,19.00
4724,15.00
4728,19.00
4732,22.00
4736,13.00
4740,19.00
4744,21.00
4748,23.00
4752,7.00
4756,10.00
4760,24.00
4764,26.00
4768,19.00
4772,6.00
4776,13.00
4780,21.00
4784,5.00
4788,9.00
4792,13.00
4796,10.00
4800,2.00
4804,21.00
4808,13.00
4812,14.00
4816,13.00
4820,9.00
4824,15.00
4828,23.00
4832,14.00
4836,19.00
4840,19.00
4844,18.00
4848,22.00
4852,9.00
4856,20.00
4860,21.00
4864,21.00
4868,10.00
4872,18.00
4876,14.00
4880,23.00
4884,17.00
4888,10.00
4892,5.00
4896,18.00
4900,8.00
4904,26.00
4908,7.00
4912,14.00
4916,5.00
4920,9.00
4924,19.00
4928,30.00
4932,6.00
4936,10.00
4940,23.00
4944,19.00
4948,22.00
4952,0.00
4956,17.00
4960,15.00
4964,9.00
4968,19.00
4972,13.00
4976,26.00
4980,9.00
4984,7.00
4988,21.00
4992,14.00
4996,24.00
5000,4.00
5004,18.00
5008,14.00
5012,26.00
5016,0.00
5020,22.00
5024,18.00
5028,31.00
5032,8.00
5036,7.00
5040,20.00
5044,18.00
5048,17.00
5052,4.00
5056,11.00
5060,13.00
5064,22.00
5068,10.00
5072,10.00
5076,18.00
5080,15.00
5084,9.00
5088,9.00
5092,19.00
5096,19.00
5100,9.00
5104,13.00
5108,9.00
5112,29.00
5116,4.00
5120,29.00
5124,4.00
5128,18.00
5132,4.00
5136,18.00
5140,21.00
5144,18.00
5148,15.00
5152,7.00
5156,15.00
5160,5.00
5164,18.00
5168,17.00
5172,9.00
5176,18.00
5180,24.00
5184,10.00
5188,14.00
5192,20.00
5196,15.00
5200,9.00
5204,14.00
5208,17.00
5212,17.00
5216,4.00
5220,20.00
5224,20.00
5228,30.00
5232,19.00
5236,9.00
5240,5.00
5244,13.00
5248,9.00
5252,0.00
5256,14.00
5260,18.00
5264,11.00
5268,10.00
5272,13.00
5276,19.00
5280,23.00
5284,19.00
5288,10.00
5292,5.00
5296,25.00
5300,9.00
5304,24.00
5308,19.00
5312,23.00
5316,19.00
5320,13.00
5324,19.00
5328,23.00
5332,22.00
5336,10.00
5340,15.00
5344,21.00
5348,13.00
5352,13.00
5356,18.00
5360,13.00
5364,21.00
5368,19.00
5372,13.00
5376,4.00
5380,19.00
5384,9.00
5388,17.00
5392,15.00
5396,28.00
5400,0.00
5404,23.00
5408,13.00
5412,22.00
5416,5.00
5420,6.00
5424,19.00
5428,28.00
5432,15.00
5436,26.00
5440,13.00
5444,34.00
5448,6.00
5452,4.00
5456,7.00
5460,8.00
5464,18.00
5468,17.00
5472,19.00
5476,13.00
5480,23.00
5484,19.00
5488,10.00
5492,18.00
5496,21.00
5500,29.00
5504,23.00
5508,15.00
5512,4.00
5516,20.00
5520,11.00
5524,5.00
5528,25.00
5532,18.00
5536,20.00
5540,21.00
5544,19.00
5548,17.00
5552,4.00
5556,20.00
5560,19.00
5564,23.00
5568,9.00
5572,23.00
5576,15.00
5580,23.00
5584,14.00
5588,13.00
5592,23.00
5596,26.00
5600,19.00
5604,19.00
5608,19.00
5612,23.00
5616,15.00
5620,18.00
5624,20.00
5628,19.00
5632,6.00
5636,9.00
5640,26.00
5644,19.00
5648,23.00
5652,0.00
5656,17.00
5660,17.00
5664,18.00
5668,9.00
5672,10.00
5676,23.00
5680,19.00
5684,8.00
5688,14.00
5692,29.00
5696,24.00
5700,7.00
5704,21.00
5708,9.00
5712,21.00
5716,7.00
5720,18.00
5724,26.00
5728,23.00
5732,23.00
5736,19.00
5740,21.00
5744,23.00
5748,19.00
5752,2.00
5756,20.00
5760,14.00
5764,10.00
5768,9.00
5772,19.00
5776,19.00
5780,23.00
5784,19.00
5788,21.00
5792,18.00
5796,17.00
5800,7.00
5804,18.00
5808,3.00
5812,19.00
5816,13.00
5820,21.00
5824,20.00
5828,18.00
5832,5.00
5836,14.00
5840,15.00
5844,12.00
5848,20.00
5852,4.00
5856,13.00
5860,17.00
5864,19.00
5868,21.00
5872,10.00
5876,13.00
5880,29.00
5884,4.00
5888,13.00
5892,15.00
5896,15.00
5900,4.00
5904,23.00
5908,18.00
5912,34.00
5916,17.00
5920,7.00
5924,14.00
5928,26.00
5932,9.00
5936,7.00
5940,10.00
5944,21.00
5948,15.00
5952,2.00
5956,13.00
5960,29.00
5964,9.00
5968,13.00
5972,14.00
5976,23.00
5980,21.00
5984,6.00
5988,15.00
5992,18.00
5996,19.00
6000,9.00
6004,22.00
6008,18.00
6012,21.00
6016,17.00
6020,18.00
6024,20.00
6028,19.00
6032,19.00
6036,15.00
6040,25.00
6044,10.00
6048,23.00
6052,9.00
6056,8.00
6060,23.00
6064,19.00
6068,15.00
6072,15.00
6076,9.00
6080,19.00
6084,9.00
6088,10.00
6092,18.00
6096,23.00
6100,9.00
6104,10.00
6108,10.00
6112,22.00
6116,8.00
6120,9.00
6124,24.00
6128,24.00
6132,11.00
6136,18.00
6140,9.00
6144,21.00
6148,2.00
6152,4.00
6156,5.00
6160,9.00
6164,18.00
6168,19.00
6172,10.00
6176,13.00
6180,18.00
6184,15.00
6188,15.00
6192,17.00
6196,23.00
6200,9.00
6204,21.00
6208,19.00
6212,25.00
6216,14.00
6220,9.00
6224,19.00
6228,15.00
6232,10.00
6236,7.00
6240,9.00
6244,26.00
6248,21.00
6252,3.00
6256,10.00
6260,13.00
6264,19.00
6268,10.00
6272,15.00
6276,21.00
6280,21.00
6284,19.00
6288,22.00
6292,4.00
6296,19.00
6300,15.00
6304,4.00
6308,10.00
6312,23.00
6316,13.00
6320,14.00
6324,22.00
6328,34.00
6332,9.00
6336,9.00
6340,15.00
6344,34.00
6348,21.00
6352,3.00
6356,19.00
6360,17.00
6364,19.00
6368,13.00
6372,10.00
6376,18.00
6380,26.00
6384,10.00
6388,9.00
6392,15.00
6396,21.00
6400,7.00
6404,18.00
6408,13.00
6412,23.00
6416,8.00
6420,24.00
6424,9.00
6428,34.00
6432,20.00
6436,19.00
6440,10.00
6444,23.00
6448,23.00
6452,4.00
6456,23.00
6460,31.00
6464,17.00
6468,13.00
6472,13.00
6476,13.00
6480,23.00
6484,13.00
6488,8.00
6492,13.00
6496,23.00
6500,15.00
6504,20.00
6508,13.00
6512,18.00
6516,13.00
6520,13.00
6524,13.00
6528,21.00
6532,10.00
6536,19.00
6540,15.00
6544,23.00
6548,4.00
6552,9.00
6556,14.00
6560,20.00
6564,15.00
6568,18.00
6572,22.00
6576,18.00
6580,24.00
6584,7.00
6588,20.00
6592,19.00
6596,23.00
6600,15.00
6604,21.00
6608,15.00
6612,20.00
6616,4.00
6620,23.00
6624,15.00
6628,10.00
6632,5.00
6636,11.00
6640,24.00
6644,14.00
6648,18.00
6652,10.00
6656,29.00
6660,13.00
6664,25.00
6668,13.00
6672,13.00
6676,24.00
6680,22.00
6684,10.00
6688,18.00
6692,4.00
6696,21.00
6700,10.00
6704,34.00
6708,4.00
6712,15.00
6716,5.00
6720,4.00
6724,15.00
6728,19.00
6732,2.00
6736,0.00
6740,15.00
6744,26.00
6748,20.00
6752,4.00
6756,15.00
6760,18.00
6764,13.00
6768,1.00
6772,6.00
6776,10.00
6780,21.00
6784,4.00
6788,19.00
6792,23.00
6796,23.00
6800,7.00
6804,23.00
6808,13.00
6812,22.00
6816,4.00
6820,19.00
6824,8.00
6828,19.00
6832,23.00
6836,19.00
6840,15.00
6844,24.00
6848,15.00
6852,8.00
6856,0.00
6860,18.00
6864,24.00
6868,9.00
6872,9.00
6876,19.00
6880,26.00
6884,4.00
6888,13.00
6892,10.00
6896,9.00
6900,14.00
6904,14.00
6908,18.00
6912,23.00
6916,22.00
6920,25.00
6924,19.00
6928,23.00
6932,9.00
6936,8.00
6940,13.00
6944,34.00
6948,13.00
6952,18.00
6956,20.00
6960,13.00
6964,26.00
6968,5.00
6972,21.00
6976,9.00
6980,18.00
6984,10.00
6988,10.00
6992,4.00
6996,30.00
7000,18.00
7004,13.00
7008,8.00
7012,22.00
7016,14.00
7020,15.00
7024,18.00
7028,23.00
7032,13.00
7036,19.00
7040,21.00
7044,24.00
7048,23.00
7052,17.00
7056,18.00
7060,19.00
7064,24.00
7068,23.00
7072,9.00
7076,14.00
7080,23.00
7084,15.00
7088,25.00
7092,19.00
7096,17.00
7100,23.00
7104,14.00
7108,22.00
7112,13.00
7116,19.00
7120,18.00
7124,19.00
7128,22.00
7132,9.00
7136,5.00
7140,24.00
7144,14.00
7148,29.00
7152,9.00
7156,19.00
7160,20.00
7164,19.00
7168,9.00
7172,17.00
7176,15.00
7180,5.00
7184,4.00
7188,29.00
7192,9.00
7196,13.00
7200,14.00
7204,18.00
7208,11.00
7212,13.00
7216,19.00
7220,9.00
7224,13.00
7228,19.00
7232,21.00
7236,10.00
7240,21.00
7244,18.00
7248,13.00
7252,15.00
7256,6.00
7260,22.00
7264,19.00
7268,18.00
7272,8.00
7276,19.00
7280,31.00
7284,3.00
7288,9.00
7292,17.00
7296,23.00
7300,15.00
7304,15.00
7308,9.00
7312,28.00
7316,5.00
7320,19.00
7324,23.00
7328,34.00
7332,13.00
7336,4.00
7340,17.00
7344,15.00
7348,24.00
7352,4.00
7356,21.00
7360,19.00
7364,13.00
7368,7.00
7372,21.00
7376,10.00
7380,4.00
7384,7.00
7388,4.00
7392,2.00
7396,22.00
7400,15.00
7404,9.00
7408,15.00
7412,26.00
7416,18.00
7420,11.00
7424,19.00
7428,19.00
7432,7.00
7436,7.00
7440,13.00
7444,28.00
7448,37.00
7452,2.00
7456,21.00
7460,24.00
7464,14.00
7468,7.00
7472,18.00
7476,18.00
7480,29.00
7484,8.00
7488,19.00
7492,19.00
7496,22.00
7500,7.00
7504,23.00
7508,13.00
7512,24.00
7516,18.00
7520,24.00
7524,22.00
7528,18.00
7532,18.00
7536,4.00
7540,13.00
7544,18.00
7548,21.00
7552,2.00
7556,11.00
7560,18.00
7564,19.00
7568,10.00
7572,34.00
7576,19.00
7580,19.00
7584,14.00
7588,22.00
7592,22.00
7596,24.00
7600,13.00
7604,28.00
7608,19.00
7612,28.00
7616,4.00
7620,13.00
7624,15.00
7628,23.00
7632,15.00
7636,4.00
7640,19.00
7644,13.00
7648,23.00
7652,18.00
7656,18.00
7660,20.00
7664,21.00
7668,21.00
7672,14.00
7676,22.00
7680,23.00
7684,3.00
7688,18.00
7692,14.00
7696,23.00
7700,14.00
7704,15.00
7708,8.00
7712,23.00
7716,0.00
7720,18.00
7724,25.00
7728,10.00
7732,9.00
7736,10.00
7740,19.00
7744,15.00
7748,13.00
7752,9.00
7756,21.00
7760,15.00
7764,13.00
7768,9.00
7772,18.00
7776,14.00
7780,9.00
7784,9.00
7788,19.00
7792,7.00
7796,28.00
7800,5.00
7804,24.00
7808,25.00
7812,25.00
7816,10.00
7820,1.00
7824,14.00
7828,19.00
7832,22.00
7836,1.00
7840,10.00
7844,7.00
7848,26.00
7852,8.00
7856,8.00
7860,18.00
7864,13.00
7868,5.00
7872,15.00
7876,5.00
7880,15.00
7884,18.00
7888,7.00
7892,24.00
7896,24.00
7900,8.00
7904,18.00
7908,9.00
7912,19.00
7916,19.00
7920,18.00
7924,22.00
7928,28.00
7932,21.00
7936,7.00
7940,10.00
7944,17.00
7948,20.00
7952,0.00
7956,18.00
7960,20.00
7964,17.00
7968,8.00
7972,13.00
7976,15.00
7980,19.00
7984,4.00
7988,9.00
7992,22.00
7996,17.00
8000,18.00
8004,9.00
8008,13.00
8012,26.00
8016,18.00
8020,9.00
8024,19.00
8028,19.00
8032,19.00
8036,0.00
8040,5.00
8044,9.00
8048,14.00
8052,3.00
8056,18.00
8060,20.00
8064,23.00
8068,5.00
8072,4.00
8076,19.00
8080,18.00
8084,15.00
8088,14.00
8092,5.00
8096,19.00
8100,7.00
8104,15.00
8108,13.00
8112,31.00
8116,14.00
8120,19.00
8124,20.00
8128,24.00
8132,23.00
8136,2.00
8140,9.00
8144,10.00
8148,9.00
8152,9.00
8156,14.00
8160,19.00
8164,9.00
8168,8.00
8172,29.00
8176,13.00
8180,15.00
8184,23.00
8188,8.00
8192,19.00
8196,17.00
8200,4.00
8204,10.00
8208,17.00
8212,21.00
8216,17.00
8220,17.00
8224,21.00
8228,19.00
8232,18.00
8236,1.00
8240,21.00
8244,26.00
8248,13.00
8252,13.00
8256,13.00
8260,8.00
8264,19.00
8268,7.00
8272,6.00
8276,15.00
8280,7.00
8284,4.00
8288,14.00
8292,20.00
8296,15.00
8300,10.00
8304,10.00
8308,18.00
8312,29.00
8316,17.00
8320,6.00
8324,13.00
8328,26.00
8332,18.00
8336,0.00
8340,23.00
8344,14.00
8348,10.00
8352,13.00
8356,19.00
8360,11.00
8364,20.00
8368,4.00
8372,14.00
8376,9.00
8380,19.00
8384,14.00
8388,19.00
8392,11.00
8396,23.00
8400,13.00
8404,2.00
8408,17.00
8412,23.00
8416,9.00
8420,15.00
8424,15.00
8428,15.00
8432,20.00
8436,2.00
8440,19.00
8444,8.00
8448,19.00
8452,10.00
8456,20.00
8460,15.00
8464,9.00
8468,2.00
8472,18.00
8476,25.00
8480,18.00
8484,19.00
8488,32.00
8492,28.00
8496,19.00
8500,7.00
8504,24.00
8508,21.00
8512,17.00
8516,24.00
8520,19.00
8524,17.00
8528,24.00
8532,21.00
8536,4.00
8540,15.00
8544,15.00
8548,26.00
8552,9.00
8556,7.00
8560,6.00
8564,25.00
8568,0.00
8572,4.00
8576,9.00
8580,8.00
8584,13.00
8588,10.00
8592,5.00
8596,32.00
8600,18.00
8604,4.00
8608,15.00
8612,23.00
8616,19.00
8620,10.00
8624,15.00
8628,29.00
8632,18.00
8636,13.00
8640,8.00
8644,22.00
8648,24.00
8652,5.00
8656,0.00
8660,20.00
8664,29.00
8668,13.00
8672,15.00
8676,15.00
8680,26.00
8684,13.00
8688,20.00
8692,21.00
8696,24.00
8700,19.00
8704,18.00
8708,19.00
8712,20.00
8716,14.00
8720,18.00
8724,15.00
8728,19.00
8732,20.00
8736,2.00
8740,10.00
8744,9.00
8748,9.00
8752,19.00
8756,3.00
8760,7.00
8764,15.00
8768,19.00
8772,19.00
8776,21.00
8780,10.00
8784,5.00
8788,9.00
8792,19.00
8796,17.00
8800,19.00
8804,19.00
8808,13.00
8812,23.00
8816,15.00
8820,8.00
8824,14.00
8828,26.00
8832,15.00
8836,2.00
8840,13.00
8844,17.00
8848,23.00
8852,19.00
8856,22.00
8860,13.00
8864,25.00
8868,3.00
8872,21.00
8876,10.00
8880,29.00
8884,9.00
8888,21.00
8892,20.00
8896,25.00
8900,9.00
8904,9.00
8908,15.00
8912,21.00
8916,18.00
8920,9.00
8924,13.00
8928,19.00
8932,26.00
8936,13.00
8940,15.00
8944,9.00
8948,20.00
8952,13.00
8956,17.00
8960,10.00
8964,24.00
8968,26.00
8972,13.00
8976,18.00
8980,21.00
8984,4.00
8988,9.00
8992,10.00
8996,19.00
9000,13.00
9004,19.00
9008,13.00
9012,23.00
9016,14.00
9020,9.00
9024,19.00
9028,25.00
9032,15.00
9036,13.00
9040,24.00
9044,23.00
9048,28.00
9052,19.00
9056,19.00
9060,18.00
9064,9.00
9068,19.00
9072,26.00
9076,13.00
9080,21.00
9084,9.00
9088,20.00
9092,10.00
9096,31.00
9100,15.00
9104,0.00
9108,20.00
9112,21.00
9116,21.00
9120,38.00
9124,19.00
9128,20.00
9132,14.00
9136,8.00
9140,13.00
9144,17.00
9148,34.00
9152,9.00
9156,15.00
9160,9.00
9164,22.00
9168,14.00
9172,21.00
9176,5.00
9180,19.00
9184,15.00
9188,23.00
9192,15.00
9196,34.00
9200,9.00
9204,14.00
9208,18.00
9212,34.00
9216,19.00
9220,24.00
9224,20.00
9228,31.00
9232,19.00
9236,10.00
9240,15.00
9244,19.00
9248,34.00
9252,19.00
9256,9.00
9260,19.00
9264,22.00
9268,0.00
9272,9.00
9276,9.00
9280,19.00
9284,9.00
9288,13.00
9292,21.00
9296,29.00
9300,6.00
9304,15.00
9308,18.00
9312,18.00
9316,14.00
9320,15.00
9324,23.00
9328,22.00
9332,13.00
9336,13.00
9340,10.00
9344,24.00
9348,17.00
9352,18.00
9356,19.00
9360,24.00
9364,19.00
9368,3.00
9372,9.00
9376,19.00
9380,19.00
9384,0.00
9388,23.00
9392,21.00
9396,21.00
9400,13.00
9404,28.00
9408,13.00
9412,24.00
9416,10.00
9420,14.00
9424,18.00
9428,24.00
9432,35.00
9436,18.00
9440,18.00
9444,22.00
9448,26.00
9452,21.00
9456,2.00
9460,10.00
9464,26.00
9468,7.00
9472,21.00
9476,23.00
9480,22.00
9484,13.00
9488,14.00
9492,18.00
9496,19.00
9500,13.00
9504,9.00
9508,17.00
9512,19.00
9516,10.00
9520,13.00
9524,18.00
9528,21.00
9532,8.00
9536,10.00
9540,21.00
9544,24.00
9548,17.00
9552,8.00
9556,15.00
9560,29.00
9564,23.00
9568,19.00
9572,20.00
9576,25.00
9580,18.00
9584,21.00
9588,23.00
9592,7.00
9596,10.00
9600,7.00
9604,14.00
9608,20.00
9612,24.00
9616,19.00
9620,15.00
9624,9.00
9628,19.00
9632,18.00
9636,11.00
9640,21.00
9644,21.00
9648,26.00
9652,22.00
9656,34.00
9660,21.00
9664,23.00
9668,15.00
9672,18.00
9676,34.00
9680,43.00
9684,5.00
9688,10.00
9692,10.00
9696,24.00
9700,17.00
9704,31.00
9708,18.00
9712,34.00
9716,13.00
9720,9.00
9724,26.00
9728,10.00
9732,9.00
9736,8.00
9740,19.00
9744,25.00
9748,14.00
9752,13.00
9756,8.00
9760,24.00
9764,15.00
9768,7.00
9772,5.00
9776,7.00
9780,24.00
9784,7.00
9788,13.00
9792,23.00
9796,21.00
9800,25.00
9804,13.00
9808,24.00
9812,38.00
9816,23.00
9820,5.00
9824,19.00
9828,4.00
9832,20.00
9836,10.00
9840,4.00
9844,18.00
9848,20.00
9852,9.00
9856,15.00
9860,24.00
9864,13.00
9868,7.00
9872,15.00
9876,10.00
9880,31.00
9884,14.00
9888,17.00
9892,10.00
9896,26.00
9900,24.00
9904,18.00
9908,19.00
9912,14.00
9916,19.00
9920,6.00
9924,18.00
9928,20.00
9932,22.00
9936,15.00
9940,8.00
9944,19.00
9948,21.00
9952,9.00
9956,23.00
9960,19.00
9964,9.00
9968,6.00
9973,1.00
9977,11.00
9981,22.00
9985,15.00
9989,17.00
9993,13.00
9997,25.00
10001,6.00
10005,23.00
10009,8.00
10013,19.00
10017,10.00
10021,7.00
10025,10.00
10029,23.00
10033,7.00
10037,18.00
10041,15.00
10045,15.00
10049,21.00
10053,14.00
10057,30.00
10061,25.00
10065,10.00
10069,9.00
10073,9.00
10077,21.00
10081,24.00
10085,5.00
10089,9.00
10093,17.00
10097,19.00
10101,19.00
10105,7.00
10109,10.00
10113,21.00
10117,17.00
10121,15.00
10125,15.00
10129,18.00
10133,2.00
10137,23.00
10141,8.00
10145,19.00
10149,30.00
10153,0.00
10158,9.00
10162,9.00
10166,17.00
10170,5.00
10174,5.00
10178,13.00
10182,24.00
10186,7.00
10190,20.00
10194,11.00
10198,19.00
10202,21.00
10206,10.00
10210,13.00
10214,18.00
10218,6.00
10222,21.00
10226,23.00
10230,24.00
10234,19.00
10238,21.00
10242,12.00
10246,21.00
10250,9.00
10254,23.00
10258,15.00
10262,26.00
10266,15.00
10270,2.00
10274,6.00
10278,6.00
10282,7.00
10286,6.00
10290,9.00
10294,14.00
10298,19.00
10302,13.00
10306,13.00
10310,19.00
10314,19.00
10318,5.00
10322,17.00
10326,4.00
10330,24.00
10334,19.00
10338,13.00
10342,19.00
10346,9.00
10350,19.00
10354,5.00
10358,9.00
10362,22.00
10366,18.00
10370,6.00
10374,7.00
10378,7.00
10382,19.00
10386,10.00
10390,18.00
10394,19.00
10398,19.00
10402,4.00
10406,15.00
10410,13.00
10414,21.00
10418,10.00
10422,19.00
10426,5.00
10430,17.00
10434,21.00
10438,19.00
10442,19.00
10446,22.00
10450,29.00
10454,23.00
10458,20.00
10462,13.00
10466,13.00
10470,0.00
10475,19.00
10479,25.00
10483,9.00
10487,10.00
10491,19.00
10495,9.00
10499,13.00
10503,9.00
10507,26.00
10511,22.00
10515,24.00
10519,14.00
10523,21.00
10527,15.00
10531,18.00
10535,9.00
10539,2.00
10543,28.00
10547,31.00
10551,7.00
10555,5.00
10559,13.00
10563,24.00
10567,14.00
10571,9.00
10575,18.00
10579,23.00
10583,19.00
10587,15.00
10591,17.00
10596,21.00
10600,26.00
10604,15.00
10608,25.00
10612,24.00
10616,13.00
10620,9.00
10624,19.00
10628,9.00
10632,22.00
10636,4.00
10640,23.00
10644,19.00
10648,26.00
10652,9.00
10656,14.00
10660,29.00
10664,18.00
10668,8.00
10672,19.00
10676,15.00
10680,30.00
10684,9.00
10688,4.00
10692,21.00
10696,26.00
10700,32.00
10704,22.00
10708,13.00
10712,24.00
10716,14.00
10720,9.00
10724,9.00
10728,13.00
10732,17.00
10736,9.00
10740,22.00
10744,4.00
10748,24.00
10752,14.00
10756,19.00
10760,21.00
10764,17.00
10768,13.00
10772,15.00
10776,23.00
10780,24.00
10784,10.00
10788,20.00
10792,13.00
10796,23.00
10800,9.00
10804,13.00
10808,26.00
10812,19.00
10816,18.00
10820,7.00
10824,19.00
10828,22.00
10832,9.00
10836,7.00
10840,0.00
10845,7.00
10849,15.00
10853,18.00
10857,17.00
10861,19.00
10865,23.00
10869,5.00
10873,9.00
10877,19.00
10881,21.00
10885,7.00
10889,13.00
10893,19.00
10897,24.00
10901,4.00
10905,9.00
10909,10.00
10913,25.00
10917,15.00
10921,9.00
10925,8.00
10929,23.00
10933,10.00
10937,10.00
10941,19.00
10945,21.00
10949,18.00
10953,14.00
10957,20.00
10961,14.00
10965,28.00
10969,8.00
10973,13.00
10977,20.00
10981,26.00
10985,10.00
10989,19.00
10993,7.00
10997,19.00
11001,6.00
11005,14.00
11009,28.00
11013,15.00
11017,18.00
11021,9.00
11025,14.00
11029,18.00
11033,5.00
11037,10.00
11041,19.00
11045,10.00
11049,13.00
11053,20.00
11057,21.00
11061,19.00
11065,9.00
11069,13.00
11073,14.00
11077,21.00
11081,31.00
11085,19.00
11089,21.00
11093,24.00
11097,25.00
11101,9.00
11105,19.00
11109,17.00
11113,20.00
11117,19.00
11121,14.00
11125,17.00
11129,29.00
11133,13.00
11137,0.00
11142,26.00
11146,24.00
11150,21.00
11154,18.00
11158,15.00
11162,24.00
11166,10.00
11170,7.00
11174,21.00
11178,18.00
11182,21.00
11186,13.00
11190,15.00
11194,18.00
11198,14.00
11202,2.00
11206,20.00
11210,20.00
11214,24.00
11218,4.00
11222,23.00
11226,21.00
11230,19.00
11234,19.00
11238,19.00
11242,18.00
11246,24.00
11250,19.00
11254,18.00
11258,19.00
11262,28.00
11266,19.00
11270,13.00
11274,13.00
11278,12.00
11282,6.00
11286,8.00
11290,18.00
11294,13.00
11298,23.00
11302,9.00
11306,13.00
11310,15.00
11314,17.00
11318,10.00
11322,23.00
11326,21.00
11330,45.00
11334,5.00
11338,10.00
11342,13.00
11346,23.00
11350,24.00
11354,19.00
11358,18.00
11362,19.00
11366,13.00
11370,0.00
11375,18.00
11379,23.00
11383,17.00
11387,13.00
11391,4.00
11395,26.00
11399,31.00
11403,8.00
11407,18.00
11411,26.00
11415,14.00
11419,20.00
11423,18.00
11427,19.00
11431,20.00
11435,14.00
11439,22.00
11443,18.00
11447,18.00
11451,8.00
11455,22.00
11459,0.00
11464,24.00
11468,9.00
11472,25.00
11476,5.00
11480,19.00
11484,15.00
11488,21.00
11492,21.00
11496,38.00
11500,13.00
11504,1.00
11508,21.00
11512,35.00
11516,15.00
11520,13.00
11524,14.00
11528,20.00
11532,18.00
11536,10.00
11540,10.00
11544,19.00
11548,15.00
11552,4.00
11556,6.00
11560,22.00
11564,19.00
11568,23.00
11572,19.00
11576,18.00
11580,10.00
11584,10.00
11588,14.00
11592,5.00
11596,23.00
11600,15.00
11604,19.00
11608,5.00
11612,34.00
11616,15.00
11620,20.00
11624,6.00
11628,9.00
11632,30.00
11636,7.00
11640,10.00
11644,8.00
11648,19.00
11652,17.00
11656,0.00
11661,21.00
11665,29.00
11669,19.00
11673,6.00
11677,20.00
11681,26.00
11685,9.00
11689,7.00
11693,15.00
11697,26.00
11701,10.00
11705,17.00
11709,15.00
11713,23.00
11717,13.00
11721,21.00
11725,19.00
11729,7.00
11733,13.00
11737,0.00
11742,13.00
11746,21.00
11750,20.00
11754,24.00
11758,26.00
11762,25.00
11766,15.00
11770,24.00
11774,23.00
11778,24.00
11782,19.00
11786,19.00
11790,23.00
11794,8.00
11798,10.00
11802,13.00
11806,23.00
11810,3.00
11814,35.00
11818,17.00
11822,10.00
11826,15.00
11830,24.00
11834,13.00
11838,19.00
11842,9.00
11846,13.00
11850,15.00
11854,20.00
11858,32.00
11862,15.00
11866,10.00
11870,19.00
11874,8.00
11878,13.00
11882,19.00
11886,19.00
11890,23.00
11894,26.00
11898,19.00
11902,0.00
11907,17.00
11911,18.00
11915,37.00
11919,14.00
11923,9.00
1