Sample_1,Sample_2,Sample_3,Sample_4
1478,1545,1107,1251
1381,1741,1338,1260
1323,2063,1607,1330
1265,2344,1953,1309
1341,2638,2201,1311
1276,2558,2190,1300
1234,2375,1744,1289
1289,1820,1297,1443
1234,1406,948,1433
1365,1081,726,1490
1351,949,702,1341
1317,1037,714,1401
1239,1122,813,1440
1178,1191,737,1393
1107,1362,932,1429
1280,1225,977,1419
1191,1183,1037,1440
1440,1231,994,1467
1580,1059,1086,1480
1772,1260,1081,1466
2068,1341,1115,1483
2197,1284,1091,1568
2231,1393,1162,1545
2138,1215,1254,1545
2010,1237,1185,1568
1636,1362,1321,1415
1219,1369,1359,1462
1029,1440,1336,1555
958,1453,1336,1669
1122,1338,1278,1637
1172,1430,1284,1480
1000,1441,1289,1559
1099,1428,1333,1647
1199,1531,1428,1555
1237,1529,1433,1636
1280,1604,1365,1636
1289,1565,1456,1503
1125,1483,1483,1620
1173,1365,1490,1483
1236,1533,1415,1466
1323,1424,1569,1484
1249,1583,1476,1544
1209,1566,1573,1504
1342,1578,1483,1456
1351,1628,1569,1375
1352,1555,1529,1363
1178,1494,1642,1379
1351,1621,1580,1492
1430,1504,1617,1476
1406,1591,1473,1409
1597,1577,1557,1312
1424,1559,1629,1341
1396,1664,1567,1249
1373,1619,1632,1352
1441,1634,1437,1545
1428,1607,1516,1445
1538,1713,1416,1469
1506,1597,1513,1444
1572,1506,1557,1445
1548,1417,1396,1488
1611,1359,1484,1453
1615,1409,1548,1490
1502,1428,1469,1470
1531,1535,1546,1513
1488,1453,1506,1514
1577,1573,1457,1477
1557,1424,1424,1578
1490,1416,1533,1424
1466,1361,1598,1591
1292,1437,1445,1548
1584,1315,1268,1513
1747,1338,1313,1460
1869,1313,1224,1463
1671,1234,1432,1452
1365,1396,1455,1417
1311,1396,1578,1445
1159,1490,1406,1473
1357,1452,1573,1413
1561,1355,1458,1513
1611,1474,1535,1456
1671,1535,1467,1534
1445,1433,1338,1478
1369,1535,1494,1543
1393,1494,1526,1610
1393,1490,1592,1578
1453,1455,1521,1624
1480,1406,1413,1533
1437,1456,1584,1462
1417,1355,1547,1503
1377,1353,1583,1445
1411,1470,1679,1514
1233,1498,1463,1432
1217,1531,1478,1485
1516,1521,1526,1411
1388,1597,1468,1445
1488,1404,1458,1404
1508,1483,1467,1538
1352,1480,1471,1481
1488,1506,1523,1440
1424,1460,1508,1543
1527,1422,1490,1572
1457,1385,1552,1393
1409,1419,1469,1533
1468,1440,1521,1588
1469,1540,1545,1523
1518,1419,1545,1528
1365,1463,1377,1516
1383,1393,1504,1406
1466,1506,1548,1538
1488,1453,1538,1343
1659,1523,1588,1508
1628,1439,1538,1508
1615,1483,1496,1533
1445,1538,1560,1523
1488,1521,1466,1504
1604,1504,1538,1518
1393,1473,1498,1531
1381,1442,1607,1543
1404,1496,1566,1533
1379,1469,1620,1528
1480,1439,1514,1666
1567,1419,1490,1588
1506,1502,1400,1723
1428,1528,1463,1624
1455,1526,1540,1546
1504,1441,1597,1503
1437,1357,1588,1361
1456,1365,1590,1393
1483,1417,1415,1395
1519,1477,1411,1454
1538,1516,1424,1357
1470,1455,1607,1393
1492,1547,1629,1361
1352,1518,1723,1456
1258,1621,1658,1411
1344,1564,1540,1504
1331,1591,1392,1514
1467,1628,1377,1428
1580,1548,1391,1432
1514,1460,1445,1424
1419,1480,1585,1573
1509,1467,1607,1424
1469,1434,1526,1569
1569,1462,1496,1492
1702,1466,1544,1743
1636,1357,1658,1967
1607,1374,1526,2322
1512,1353,1578,2591
1580,1413,1483,2639
1361,1365,1572,2287
1605,1381,1615,1870
1370,1483,1659,1228
1567,1404,1670,1035
1600,1490,1543,963
1592,1514,1514,1087
1470,1502,1428,1204
1323,1549,1413,1223
1365,1365,1426,1231
1353,1366,1540,1260
1365,1419,1494,1160
1312,1622,1474,1191
1452,1826,1466,1224
1377,2085,1466,1300
1396,2217,1374,1234
1416,2456,1469,1343
1386,2493,1424,1424
1555,2165,1426,1440
1400,1725,1445,1406
1387,1340,1390,1362
1469,1022,1379,1278
1622,967,1432,1289
1808,1031,1445,1312
2089,1278,1552,1477
2272,1267,1724,1492
2422,1166,1951,1518
2432,1114,2191,1566
2414,1122,2444,1374
2055,1215,2565,1437
1686,1251,2535,1460
1392,1315,2224,1492
1032,1326,1698,1566
1014,1300,1207,1566
1037,1316,987,1474
1087,1387,1037,1540
1098,1430,1211,1529
1078,1400,1153,1538
1219,1377,1198,1518
1217,1225,1198,1526
1275,1338,1175,1474
1236,1432,1300,1555
1369,1488,1341,1564
1233,1483,1234,1584
1207,1380,1273,1597
1303,1415,1262,1735
1330,1453,1390,1621
1379,1428,1401,1624
1325,1513,1325,1642
1456,1548,1413,1547
1310,1506,1379,1553
1406,1462,1365,1566
1432,1487,1506,1647
1393,1552,1413,1615
1396,1555,1584,1580
1361,1569,1432,1580
1406,1521,1374,1445
1391,1573,1463,1413
1428,1544,1431,1469
1531,1621,1573,1545
1498,1597,1521,1523
1406,1592,1635,1396
1385,1533,1488,1362
1433,1528,1490,1380
1573,1648,1529,1401
1541,1580,1545,1353
1516,1560,1546,1492
1477,1547,1580,1467
1609,1456,1562,1395
1622,1492,1514,1409
1580,1562,1588,1303
1548,1555,1709,1413
1406,1531,1636,1499
1492,1432,1753,1506
1569,1396,1689,1585
1544,1393,1494,1437
1526,1440,1580,1383
1521,1411,1519,1440
1483,1340,1615,1455
1355,1315,1592,1533
1460,1393,1611,1492
1428,1343,1637,1428
1582,1406,1721,1406
1442,1437,1519,1477
1374,1406,1463,1462
1388,1424,1560,1460
1440,1343,1415,1441
1362,1365,1463,1478
1492,1485,1441,1565
1344,1259,1440,1521
1311,1401,1400,1498
1317,1381,1361,1428
1429,1494,1456,1466
1468,1409,1437,1494
1416,1555,1381,1595
1483,1387,1508,1582
1404,1331,1411,1584
1488,1365,1498,1473
1289,1361,1393,1580
1281,1444,1513,1458
1352,1422,1406,1331
1316,1393,1466,1393
1428,1494,1428,1428
1529,1483,1406,1516
1422,1526,1342,1566
1379,1516,1409,1445
1485,1468,1370,1455
1480,1543,1527,1417
1518,1428,1351,1496
1439,1417,1488,1533
1526,1518,1406,1607
1311,1452,1383,1452
1463,1318,1429,1460
1379,1478,1533,1569
1289,1456,1669,1529
1317,1494,1531,1373
1579,1480,1443,1490
1483,1488,1468,1506
1468,1483,1432,1518
1481,1433,1490,1545
1400,1433,1460,1473
1467,1469,1453,1432
1457,1386,1430,1455
1415,1529,1462,1582
1621,1431,1529,1541
1469,1468,1607,1529
1528,1478,1533,1545
1456,1323,1457,1531
1433,1471,1443,1544
1437,1362,1297,1543
1516,1385,1422,1557
1497,1357,1445,1669
1483,1565,1496,1597
1422,1432,1478,1636
1457,1381,1466,1622
1437,1503,1485,1547
1502,1469,1452,1453
1469,1608,1377,1496
1540,1611,1428,1531
1393,1474,1506,1483
1441,1488,1485,1514
1357,1559,1440,1543
1552,1386,1445,1424
1453,1506,1460,1415
1483,1503,1396,1357
1569,1656,1488,1474
1460,1580,1514,1445
1456,1484,1518,1516
1516,1557,1355,1483
1580,1443,1490,1445
1565,1538,1440,1432
1611,1401,1456,1379
1564,1504,1513,1373
1613,1543,1504,1374
1538,1476,1411,1440
1353,1413,1440,1562
1490,1335,1443,1721
1535,1383,1441,1993
1504,1417,1468,2268
1540,1419,1503,2648
1518,1498,1466,2538
1424,1339,1460,2360
1391,1483,1462,1877
1362,1463,1521,1374
1419,1470,1506,1133
1379,1315,1478,1024
1416,1349,1478,1117
1400,1445,1518,1085
1404,1628,1572,1214
1383,1764,1591,1026
1352,1971,1565,1287
1411,2226,1600,1201
1338,2450,1494,1267
1463,2591,1536,1292
1533,2392,1545,1204
1533,1967,1516,1303
1750,1622,1445,1335
2071,1163,1426,1379
2456,1039,1430,1453
2643,1001,1480,1430
2739,1127,1309,1339
2521,1081,1413,1443
2016,1184,1415,1419
1518,1122,1355,1402
1141,1253,1492,1557
959,1303,1607,1453
1020,1265,1428,1473
1087,1272,1443,1478
1050,1265,1428,1445
1157,1330,1496,1488
1126,1258,1466,1473
1136,1224,1445,1440
1223,1276,1583,1424
1131,1419,1629,1403
1148,1415,1816,1411
1251,1380,2142,1529
1341,1457,2394,1544
1228,1492,2635,1568
1259,1488,2582,1578
1287,1460,2273,1572
1323,1457,1761,1544
1302,1317,1311,1584
1406,1533,1050,1547
1433,1486,1038,1608
1464,1467,1038,1557
1478,1538,1112,1583
1441,1514,1170,1604
1463,1502,1159,1577
1521,1463,1178,1583
1433,1553,1209,1615
1490,1514,1204,1671
1413,1637,1236,1440
1494,1483,1126,1503
1483,1611,1310,1485
1676,1531,1341,1477
1548,1518,1370,1455
1503,1607,1359,1468
1584,1564,1303,1483
1474,1619,1366,1462
1611,1605,1381,1431
1664,1666,1445,1488
1561,1630,1516,1377
1473,1555,1428,1424
1533,1452,1430,1385
1521,1566,1518,1385
1637,1548,1374,1340
1621,1543,1443,1396
1566,1591,1483,1379
1565,1462,1419,1338
1483,1411,1528,1377
1656,1311,1504,1468
1555,1403,1480,1454
1514,1388,1468,1427
1443,1367,1512,1353
1428,1443,1502,1445
1535,1460,1529,1443
1543,1311,1629,1411
1393,1430,1514,1483
1352,1490,1569,1469
1379,1415,1529,1393
1374,1393,1593,1406
1352,1416,1569,1430
1415,1395,1656,1428
1531,1406,1611,1453
1278,1428,1591,1453
1268,1357,1557,1483
1370,1473,1646,1476
1312,1484,1572,1455
1490,1478,1552,1485
1440,1411,1535,1426
1496,1404,1565,1535
1392,1383,1445,1445
1415,1352,1557,1526
1441,1516,1457,1473
1365,1562,1514,1466
1428,1518,1483,1432
1476,1352,1379,1498
1428,1365,1428,1443
1503,1379,1351,1430
1557,1506,1381,1481
1427,1468,1406,1456
1433,1543,1400,1494
1494,1588,1328,1474
1463,1490,1309,1534
1386,1455,1370,1463
1442,1343,1373,1404
1478,1404,1492,1366
1473,1462,1406,1428
1433,1502,1393,1462
1469,1516,1357,1535
1502,1548,1506,1621
1548,1544,1483,1492
1488,1572,1453,1473
1458,1379,1365,1501
1400,1417,1440,1433
1474,1428,1433,1441
1365,1458,1480,1428
1538,1514,1490,1468
1440,1555,1456,1557
1471,1381,1431,1483
1369,1415,1440,1480
1439,1452,1492,1470
1400,1484,1488,1518
1406,1462,1460,1514
1426,1543,1412,1521
1504,1477,1480,1424
1473,1540,1467,1441
1469,1516,1477,1353
1504,1437,1426,1516
1528,1518,1490,1504
1502,1481,1428,1533
1439,1526,1377,1590
1460,1492,1504,1566
1545,1483,1422,1555
1406,1478,1349,1559
1469,1583,1409,1535
1488,1504,1490,1529
1561,1483,1519,1490
1513,1422,1455,1577
1596,1437,1463,1529
1578,1609,1490,1488
1514,1592,1428,1485
1666,1574,1473,1432
1629,1504,1471,1455
1580,1484,1383,1490
1607,1526,1544,1462
1490,1543,1561,1506
1508,1578,1557,1416
1439,1609,1469,1396
1471,1464,1440,1440
1338,1534,1430,1416
1396,1473,1444,1434
1391,1527,1402,1432
1391,1544,1443,1433
1508,1509,1478,1454
1331,1406,1533,1419
1424,1362,1468,1439
1513,1260,1521,1466
1483,1426,1406,1580
1402,1460,1519,1875
1344,1437,1498,2164
1387,1545,1516,2397
1331,1443,1566,2615
1404,1452,1406,2689
1583,1401,1519,2263
1713,1409,1441,1892
2028,1366,1432,1303
2368,1407,1400,1091
2612,1485,1409,951
2688,1611,1488,999
2584,1762,1455,1083
1987,2087,1595,1166
1569,2463,1566,1251
1151,2571,1540,1189
962,2645,1538,1185
934,2372,1535,1231
1020,1883,1526,1209
1129,1303,1504,1278
1308,1151,1463,1302
1258,1085,1559,1313
1331,1133,1600,1263
1287,1166,1467,1312
1173,1112,1473,1336
1225,1118,1428,1352
1111,1091,1309,1321
1281,1191,1366,1383
1286,1248,1481,1353
1294,1312,1406,1357
1323,1316,1379,1468
1370,1317,1400,1462
1299,1223,1469,1519
1313,1379,1367,1485
1278,1379,1474,1492
1367,1377,1441,1496
1331,1353,1351,1544
1413,1279,1401,1490
1557,1417,1513,1521
1473,1349,1580,1555
1559,1413,1704,1416
1422,1343,1939,1575
1544,1490,2298,1494
1483,1470,2535,1483
1411,1452,2668,1524
1516,1492,2651,1529
1468,1533,2243,1622
1470,1463,1607,1478
1529,1494,1217,1600
1616,1521,1010,1519
1597,1466,925,1583
1664,1557,1112,1607
1604,1504,1116,1568
1588,1518,1184,1533
1508,1596,1149,1519
1580,1583,1198,1568
1624,1621,1173,1580
1508,1535,1191,1592
1615,1592,1172,1535
1567,1634,1284,1490
1543,1686,1303,1528
1566,1521,1393,1369
1483,1604,1344,1496
1584,1490,1311,1481
1439,1595,1377,1490
1463,1621,1265,1483
1490,1739,1391,1516
1521,1566,1462,1422
1483,1490,1416,1311
1377,1326,1422,1344
1441,1466,1419,1426
1323,1521,1395,1343
1317,1390,1516,1468
1366,1468,1390,1415
1483,1428,1523,1417
1377,1401,1362,1440
1456,1383,1377,1374
1369,1473,1370,1355
1379,1457,1514,1456
1428,1555,1440,1445
1366,1391,1538,1428
1393,1402,1591,1457
1422,1433,1567,1419
1509,1381,1610,1419
1497,1480,1584,1506
1478,1483,1572,1412
1428,1432,1574,1393
1428,1351,1529,1445
1355,1428,1516,1433
1379,1432,1565,1352
1411,1325,1557,1432
1452,1383,1562,1529
1504,1488,1548,1466
1504,1473,1567,1496
1411,1509,1494,1490
1387,1380,1555,1406
1375,1481,1593,1569
1478,1460,1528,1462
1422,1490,1560,1416
1508,1456,1483,1430
1440,1480,1485,1373
1417,1417,1473,1473
1445,1454,1417,1580
1579,1516,1519,1518
1396,1538,1455,1519
1419,1518,1377,1457
1521,1548,1380,1478
1469,1471,1309,1439
1383,1470,1379,1428
1503,1468,1302,1498
1494,1417,1428,1413
1529,1400,1404,1377
1498,1460,1285,1480
1557,1456,1415,1456
1388,1503,1388,1444
1315,1422,1512,1468
1393,1404,1424,1526
1455,1518,1462,1562
1534,1443,1411,1580
1437,1469,1343,1481
1441,1543,1437,1471
1533,1444,1468,1355
1509,1483,1504,1370
1521,1428,1428,1428
1569,1488,1416,1453
1533,1417,1416,1504
1427,1460,1424,1441
1557,1353,1463,1518
1506,1415,1521,1466
1513,1417,1460,1486
1565,1519,1303,1514
1535,1529,1437,1492
1406,1557,1300,1455
1485,1387,1462,1468
1428,1488,1440,1559
1443,1417,1545,1485
1478,1443,1533,1513
1338,1521,1516,1521
1392,1453,1504,1569
1338,1582,1506,1548
1415,1470,1534,1540
1390,1462,1440,1578
1503,1452,1442,1572
1399,1481,1395,1504
1415,1419,1432,1557
1531,1557,1497,1561
1365,1478,1632,1555
1401,1508,1383,1469
1433,1469,1381,1528
1681,1508,1365,1521
1869,1496,1406,1490
2303,1490,1488,1439
2505,1535,1424,1381
2624,1599,1470,1440
2456,1664,1441,1338
2026,1540,1547,1419
1660,1567,1538,1431
1262,1588,1538,1387
999,1569,1528,1457
937,1456,1516,1468
971,1531,1377,1416
1059,1548,1498,1419
1112,1583,1445,1452
1312,1506,1462,1411
1201,1498,1536,1455
1273,1413,1498,1462
1216,1411,1538,1674
1223,1339,1509,1982
1157,1369,1452,2296
1258,1406,1411,2555
1326,1396,1498,2732
1351,1540,1521,2484
1353,1503,1485,2087
1374,1365,1548,1683
1419,1419,1565,1251
1365,1452,1681,971
1441,1370,1514,1045
1490,1468,1538,1114
1416,1404,1503,1101
1485,1504,1521,1136
1440,1664,1486,1173
1540,1934,1443,1209
1567,2287,1531,1225
1469,2525,1521,1206
1490,2665,1456,1236
1502,2637,1469,1275
1516,2204,1454,1265
1478,1705,1407,1262
1579,1202,1413,1325
1439,1034,1400,1306
1588,1074,1467,1361
1473,1051,1426,1437
1591,1074,1483,1419
1528,1234,1412,1339
1514,1140,1437,1381
1580,1311,1419,1471
1632,1278,1469,1413
1592,1268,1313,1486
1676,1215,1365,1416
1593,1249,1417,1331
1604,1317,1516,1422
1521,1289,1607,1492
1503,1393,1686,1516
1569,1504,1994,1552
1490,1393,2389,1497
1624,1365,2516,1543
1569,1387,2625,1544
1516,1374,2400,1610
1516,1413,1912,1494
1509,1413,1429,1549
1391,1417,1141,1509
1415,1455,985,1572
1428,1424,1034,1543
1460,1379,1146,1619
1455,1508,1131,1547
1498,1441,1211,1607
1284,1437,1192,1572
1387,1432,1263,1681
1353,1516,1289,1591
1432,1607,1317,1566
1424,1543,1260,1632
1440,1582,1357,1584
1317,1492,1290,1516
1415,1609,1284,1521
1361,1579,1338,1457
1466,1727,1379,1513
1470,1582,1279,1494
1411,1565,1409,1534
1437,1566,1469,1437
1460,1483,1381,1432
1496,1624,1402,1445
1441,1673,1426,1406
1490,1671,1369,1391
1445,1582,1483,1390
1413,1509,1445,1392
1488,1526,1523,1377
1483,1559,1341,1365
1514,1580,1521,1415
1592,1548,1516,1478
1417,1516,1490,1387
1437,1504,1543,1463
1426,1473,1424,1411
1424,1433,1504,1422
1439,1591,1564,1411
1674,1516,1548,1417
1523,1588,1617,1463
1557,1494,1702,1516
1468,1393,1559,1519
1415,1285,1455,1432
1422,1292,1463,1445
1494,1395,1504,1335
1415,1456,1469,1386
1518,1424,1622,1439
1560,1480,1566,1485
1565,1401,1622,1455
1492,1312,1521,1514
1433,1302,1566,1494
1328,1407,1641,1437
1503,1352,1519,1548
1506,1502,1521,1419
1549,1555,1548,1473
1440,1526,1477,1544
1428,1534,1519,1552
1604,1463,1533,1580
1634,1508,1528,1444
1504,1483,1406,1432
1641,1363,1439,1474
1588,1508,1397,1406
1577,1349,1419,1427
1560,1413,1377,1445
1588,1452,1383,1474
1474,1557,1387,1474
1441,1468,1417,1453
1409,1478,1366,1416
1492,1395,1455,1478
1407,1463,1383,1452
1544,1442,1311,1462
1494,1508,1335,1503
1519,1578,1433,1456
1509,1469,1462,1455
1361,1437,1464,1462
1440,1387,1506,1494
1478,1429,1433,1424
1361,1468,1428,1535
1445,1473,1471,1508
1456,1547,1477,1490
1409,1496,1496,1456
1474,1393,1445,1437
1467,1437,1441,1574
1469,1411,1413,1415
1604,1460,1440,1478
1632,1445,1456,1473
2047,1466,1494,1569
2254,1548,1483,1426
2645,1443,1351,1466
2704,1531,1373,1428
2541,1565,1535,1422
2076,1483,1481,1504
1521,1428,1496,1508
1251,1453,1526,1506
1091,1428,1460,1555
1071,1492,1445,1508
1050,1478,1439,1569
1091,1514,1516,1635
1141,1379,1440,1496
1192,1429,1492,1591
1225,1514,1419,1572
1188,1485,1483,1516
1249,1502,1473,1555
1260,1485,1453,1548
1260,1416,1580,1415
1251,1561,1509,1453
1299,1503,1445,1427
1281,1488,1430,1433
1251,1572,1509,1432
1285,1469,1466,1385
1393,1561,1490,1415
1441,1643,1504,1492
1470,1580,1502,1460
1377,1518,1365,1455
1470,1528,1486,1483
1415,1565,1521,1403
1426,1604,1531,1409
1391,1568,1462,1415
1494,1441,1457,1450
1469,1417,1445,1469
1503,1494,1470,1502
1536,1490,1452,1541
1534,1567,1534,1611
1544,1508,1513,1803
1503,1419,1518,2095
1521,1413,1588,2322
1567,1393,1580,2519
1462,1370,1443,2461
1665,1462,1426,2224
1529,1411,1478,1732
1615,1492,1592,1383
1582,1406,1564,1078
1567,1359,1455,1037
1543,1503,1557,1047
1516,1428,1509,1148
1503,1431,1569,1173
1544,1469,1426,1204
1494,1557,1463,1231
1518,1821,1424,1275
1722,2028,1416,1285
1572,2330,1396,1355
1412,2539,1387,1315
1494,2534,1352,1349
1513,2419,1488,1433
1656,1897,1426,1321
1615,1426,1483,1328
1477,1139,1440,1328
1362,971,1365,1366
1366,1153,1428,1381
1396,1099,1412,1411
1457,1057,1584,1437
1445,1059,1572,1422
1225,1112,1819,1430
1403,1231,2003,1473
1413,1339,2309,1415
1445,1406,2549,1485
1391,1341,2512,1492
1441,1262,2275,1503
1365,1351,1848,1428
1426,1309,1276,1483
1409,1444,1027,1516
1431,1383,1008,1567
1381,1412,1021,1470
1396,1330,1082,1541
1470,1306,1103,1509
1536,1379,1209,1544
1513,1393,1251,1529
1548,1455,1248,1548
1566,1409,1343,1579
1508,1518,1236,1580
1349,1433,1331,1604
1406,1547,1328,1642
1362,1445,1323,1607
1480,1535,1311,1611
1561,1428,1303,1604
1544,1569,1312,1711
1402,1488,1419,1596
1432,1564,1391,1595
1526,1642,1519,1561
1462,1575,1428,1529
1552,1569,1544,1463
1477,1547,1462,1574
1439,1538,1413,1467
1411,1531,1463,1417
1445,1580,1396,1477
1416,1521,1444,1516
1580,1617,1506,1504
1521,1526,1528,1478
1492,1567,1437,1404
1529,1584,1543,1411
1485,1616,1509,1367
1462,1628,1474,1352
1463,1536,1445,1361
1494,1534,1503,1427
1494,1600,1545,1340
1467,1437,1621,1352
1548,1610,1521,1336
1496,1647,1676,1363
1518,1437,1644,1413
1518,1441,1578,1468
1538,1441,1595,1478
1513,1369,1669,1416
1492,1336,1659,1415
1546,1422,1567,1454
1569,1413,1579,1473
1565,1572,1584,1379
1567,1352,1437,1498
1538,1424,1605,1441
1473,1313,1538,1531
1506,1336,1596,1439
1411,1404,1463,1393
1441,1432,1504,1485
1463,1411,1379,1462
1468,1351,1366,1508
1464,1455,1366,1535
1508,1488,1388,1509
1239,1428,1428,1312
1498,1413,1432,1401
1494,1373,1434,1413
1383,1473,1463,1569
1386,1444,1401,1477
1400,1547,1351,1555
1383,1433,1488,1460
1477,1361,1409,1379
1393,1521,1443,1540
1494,1437,1433,1467
1344,1471,1437,1402
1609,1370,1390,1439
1967,1564,1441,1476
2323,1439,1501,1508
2653,1467,1494,1533
2760,1428,1433,1561
2619,1455,1523,1469
2118,1533,1474,1445
1628,1502,1494,1393
1326,1519,1483,1494
1050,1637,1456,1439
1034,1440,1377,1377
1053,1509,1385,1411
1178,1357,1424,1424
1111,1365,1498,1497
1067,1388,1513,1428
1209,1441,1498,1531
1173,1490,1469,1548
1268,1433,1535,1460
1255,1383,1422,1474
1303,1483,1422,1441
1290,1480,1502,1477
1344,1521,1470,1547
1413,1426,1419,1416
1388,1453,1503,1513
1325,1469,1531,1513
1276,1488,1460,1492
1365,1424,1476,1543
1424,1623,1508,1592
1353,1547,1492,1480
1456,1456,1452,1671
1516,1567,1415,1664
1488,1362,1488,1492
1432,1455,1458,1538
1470,1509,1432,1544
1480,1504,1535,1442
1460,1548,1513,1462
1534,1462,1385,1439
1509,1535,1440,1431
1513,1548,1478,1404
1460,1468,1483,1473
1419,1494,1419,1367
1453,1592,1473,1504
1526,1560,1496,1388
1573,1513,1413,1444
1580,1734,1445,1480
1595,1547,1566,1453
1577,1566,1473,1428
1557,1670,1538,1443
1636,1504,1503,1413
1592,1411,1433,1401
1538,1490,1417,1430
1649,1426,1535,1552
1555,1543,1445,1629
1591,1534,1607,1781
1428,1469,1565,2119
1470,1382,1611,2408
1424,1402,1584,2504
1555,1305,1555,2410
1466,1379,1566,2136
1577,1473,1535,1709
1518,1607,1597,1196
1422,1401,1526,1122
1469,1428,1455,966
1402,1357,1503,1076
1326,1443,1462,1153
1351,1403,1440,1228
1439,1381,1351,1183
1374,1494,1498,1215
1365,1559,1445,1228
1455,1809,1518,1290
1504,1819,1473,1271
1521,2113,1469,1300
1431,2386,1388,1424
1478,2605,1396,1361
1349,2422,1349,1343
1393,2164,1452,1279
1453,1769,1380,1387
1381,1139,1442,1393
1388,1055,1506,1392
1468,949,1485,1434
1416,1037,1689,1432
1496,1268,1892,1534
1559,1122,2153,1467
1478,1127,2359,1445
1528,1099,2539,1462
1440,1260,2521,1457
1424,1284,2240,1443
1426,1292,1757,1565
1428,1341,1330,1588
1509,1274,1091,1516
1490,1352,872,1478
1487,1309,1083,1473
1466,1412,1251,1428
1480,1310,1253,1516
1483,1352,1300,1560
1516,1462,1175,1569
1454,1548,1163,1621
1503,1455,1223,1656
1492,1415,1224,1627
1406,1343,1362,1635
1454,1392,1289,1483
1474,1540,1373,1566
1552,1607,1335,1548
1396,1454,1381,1521
1456,1352,1352,1595
1383,1352,1374,1682
1468,1494,1331,1569
1401,1619,1494,1566
1462,1622,1375,1573
1483,1622,1379,1531
1529,1437,1559,1514
1523,1561,1411,1477
1533,1590,1503,1552
1569,1595,1513,1428
1468,1584,1452,1404
1478,1512,1428,1514
1583,1622,1503,1419
1470,1535,1621,1401
1483,1566,1453,1455
1588,1541,1531,1424
1607,1604,1462,1369
1531,1569,1578,1357
1535,1592,1552,1406
1433,1540,1494,1365
1416,1649,1628,1413
1426,1580,1544,1396
1521,1613,1494,1379
1454,1483,1483,1484
1406,1509,1548,1303
1437,1411,1697,1379
1437,1442,1641,1406
1396,1415,1709,1366
1370,1419,1549,1503
1377,1352,1526,1393
1395,1406,1540,1483
1430,1463,1538,1455
1463,1393,1503,1388
1419,1477,1533,1473
1462,1323,1545,1453
1381,1303,1521,1419
1490,1345,1481,1428
1592,1349,1443,1419
1700,1452,1460,1419
1777,1404,1399,1526
2200,1317,1466,1624
2334,1355,1415,1490
2546,1445,1437,1521
2416,1413,1321,1452
2117,1478,1393,1441
1698,1519,1416,1424
1166,1456,1428,1437
1148,1462,1355,1478
973,1468,1385,1526
1012,1467,1373,1478
1127,1480,1416,1516
1234,1406,1429,1483
1260,1335,1416,1529
1173,1374,1379,1488
1297,1428,1455,1456
1262,1403,1426,1514
1336,1569,1445,1428
1275,1498,1488,1516
1444,1506,1516,1548
1312,1477,1519,1509
1323,1494,1483,1467
1309,1473,1416,1453
1433,1413,1433,1400
1427,1440,1469,1370
1385,1523,1430,1474
1437,1400,1393,1379
1393,1534,1555,1406
1457,1533,1534,1430
1468,1582,1430,1474
1518,1488,1440,1469
1385,1437,1463,1466
1441,1367,1411,1478
1474,1341,1445,1528
1478,1417,1474,1562
1535,1504,1456,1574
1387,1460,1432,1580
1557,1445,1433,1569
1585,1497,1535,1565
1417,1485,1433,1531
1592,1513,1431,1617
1557,1494,1467,1610
1546,1390,1492,1595
1560,1512,1471,1545
1541,1416,1406,1468
1580,1538,1561,1508
1588,1419,1468,1492
1463,1486,1538,1437
1627,1508,1526,1508
1698,1548,1582,1469
1557,1611,1512,1381
1588,1485,1565,1401
1445,1484,1490,1453
1503,1338,1503,1395
1560,1469,1400,1428
1469,1483,1439,1401
1466,1490,1428,1387
1600,1637,1513,1428
1557,1547,1483,1478
1580,1528,1412,1428
1496,1496,1467,1456
1439,1488,1409,1383
1526,1488,1483,1506
1477,1485,1573,1566
1357,1624,1566,1794
1355,1516,1566,2072
1303,1557,1529,2389
1299,1462,1593,2557
1377,1419,1474,2684
1455,1592,1544,2456
1388,1540,1597,1966
1419,1463,1620,1555
1415,1338,1496,1082
1488,1328,1569,963
1441,1362,1462,1050
1445,1357,1506,1157
1365,1439,1463,1125
1506,1433,1514,1263
1462,1462,1411,1140
1428,1409,1365,1201
1518,1469,1412,1224
1428,1370,1456,1178
1330,1383,1396,1228
1352,1569,1367,1275
1396,1730,1431,1341
1383,2041,1521,1352
1519,2347,1468,1379
1548,2658,1437,1422
1463,2701,1476,1351
1439,2546,1393,1355
1566,2002,1406,1323
1463,1466,1445,1385
1380,1022,1469,1361
1474,935,1681,1396
1498,989,1933,1470
1463,1021,2361,1428
1508,1204,2662,1468
1490,1127,2701,1403
1607,1233,2668,1457
1440,1284,2273,1426
1379,1215,1709,1460
1504,1214,1287,1561
1470,1225,998,1518
1445,1343,1008,1492
1457,1317,1022,1565
1409,1325,1126,1516
1453,1374,1112,1490
1404,1290,1225,1531
1504,1323,1170,1561
1533,1369,1213,1580
1498,1383,1183,1533
1406,1339,1136,1557
1544,1502,1188,1544
1506,1440,1312,1636
1582,1474,1335,1533
1622,1341,1287,1642
1546,1353,1357,1580
1494,1388,1430,1569
1543,1535,1315,1548
1533,1572,1365,1568
1561,1604,1439,1548
1473,1513,1417,1538
1361,1406,1483,1490
1411,1424,1566,1533
1445,1492,1432,1478
1393,1514,1428,1516
1351,1580,1419,1412
1466,1597,1379,1444
1393,1619,1470,1424
1506,1521,1548,1516
1503,1605,1456,1428
1519,1579,1524,1437
1406,1508,1478,1355
1584,1509,1422,1404
1471,1533,1456,1338
1400,1567,1573,1381
1393,1573,1580,1402
1419,1624,1591,1494
1580,1704,1629,1445
1811,1547,1580,1560
2113,1620,1509,1483
2427,1567,1566,1411
2560,1490,1622,1416
2480,1488,1622,1424
2161,1393,1552,1494
1709,1379,1531,1463
1132,1383,1691,1419
1065,1441,1463,1415
1014,1416,1543,1387
1140,1456,1540,1470
1083,1370,1477,1437
1173,1406,1531,1540
1198,1275,1508,1452
1213,1363,1508,1440
1254,1316,1437,1478
1289,1352,1404,1463
1317,1498,1481,1406
1231,1381,1455,1477
1433,1365,1424,1492
1326,1355,1393,1492
1287,1477,1428,1477
1302,1513,1377,1439
1437,1557,1300,1557
1339,1560,1424,1469
1366,1460,1428,1468
1369,1468,1326,1533
1415,1538,1462,1455
1379,1496,1483,1488
1477,1341,1370,1478
1483,1362,1349,1477
1369,1310,1361,1456
1460,1533,1431,1379
1468,1424,1355,1490
1540,1341,1440,1561
1548,1355,1470,1466
1462,1380,1437,1416
1484,1480,1462,1502
1467,1514,1477,1469
1545,1577,1483,1503
1480,1497,1419,1546
1548,1415,1426,1492
1441,1496,1502,1440
1578,1469,1428,1514
1595,1619,1393,1557
1597,1619,1476,1498
1533,1483,1473,1380
1513,1323,1469,1490
1619,1441,1453,1512
1604,1370,1455,1526
1604,1514,1490,1483
1506,1416,1569,1533
1514,1480,1526,1492
1483,1506,1440,1473
1516,1432,1357,1564
1526,1508,1411,1604
1572,1518,1443,1604
1533,1519,1813,1498
1477,1339,1864,1555
1518,1416,2174,1543
1441,1439,2394,1545
1362,1443,2382,1508
1443,1580,2407,1514
1430,1523,2460,1441
1432,1519,2384,1503
1393,1492,2453,1462
1428,1488,2456,1428
1351,1474,2510,1357
1391,1514,2521,1361
1401,1456,2601,1419
1441,1413,2686,1406
1393,1463,2733,1415
1366,1396,2742,1466
1506,1433,2753,1477
1385,1562,2803,1483
1516,1533,2927,1379
1432,1656,2834,1404
1422,1526,2935,1424
1506,1646,2854,1531
1435,1591,2754,1681
1529,1584,2723,1943
1462,1588,2772,2167
1401,1588,2713,2364
1504,1526,2507,2658
1470,1494,2627,2657
1390,1455,2647,2395
1406,1516,2608,1853
1437,1393,2548,1351
1468,1400,2640,1078
1471,1454,2604,951
1440,1441,2561,1051
1492,1352,2561,1183
1467,1387,2565,1172
1538,1393,2435,1162
1460,1379,2376,1222
1508,1462,2376,1222
1393,1351,2450,1204
1508,1488,2316,1207
1463,1480,2249,1279
1562,1552,2261,1287
1473,1478,2275,1305
1669,1412,2316,1351
1531,1488,2386,1300
1477,1607,2407,1379
1422,1840,2359,1330
1541,2203,2381,1413
1455,2516,2479,1381
1490,2591,2424,1341
1575,2568,2451,1415
1428,2334,2453,1494
1514,1735,2494,1503
1439,1433,2444,1471
1609,1163,2501,1488
1437,974,2590,1463
1527,1140,2820,1453
1557,1081,3075,1490
1584,1055,3075,1485
1600,1114,3075,1433
1561,1176,3075,1503
1529,1286,3075,1595
1466,1305,3075,1533
1424,1303,3075,1516
1441,1228,2969,1578
1490,1224,2647,1580
1393,1250,2541,1565
1469,1300,2562,1533
1430,1289,2573,1596
1445,1395,2686,1629
1424,1403,2687,1666
1468,1424,2638,1579
1441,1391,2747,1582
1492,1342,2741,1508
1557,1355,2846,1514
1468,1386,2591,1636
1473,1547,2599,1580
1339,1477,2619,1533
1424,1462,2552,1582
1409,1454,2584,1477
1428,1468,2648,1385
1516,1526,2596,1504
1838,1445,2545,1490
2113,1481,2511,1533
2333,1492,2558,1526
2562,1484,2541,1494
2611,1607,2662,1411
2200,1440,2651,1367
1914,1579,2725,1365
1393,1534,2701,1437
1108,1553,2647,1401
987,1607,2758,1374
1141,1632,2827,1325
1225,1498,2827,1404
1178,1545,2901,1413
1251,1628,2944,1406
1259,1513,2936,1415
1306,1544,2918,1503
1248,1441,3075,1428
1173,1592,3075,1404
1162,1671,3066,1513
1326,1629,3075,1445
1224,1684,3075,1457
1367,1445,3075,1433
1428,1429,3075,1437
1336,1424,3075,1406
1417,1502,3075,1433
1374,1555,3075,1455
1406,1473,3075,1454
1351,1485,3075,1416
1374,1357,3075,1412
1440,1306,3075,1521
1401,1328,3075,1555
1492,1369,3075,1445
1419,1409,3075,1468
1483,1400,3075,1469
1485,1426,3075,1426
1467,1380,3075,1411
1440,1379,3075,1424
1469,1386,3075,1490
1466,1453,3075,1466
1527,1524,3075,1543
1540,1348,3075,1560
1632,1437,3075,1401
1460,1428,3075,1428
1480,1514,3075,1417
1477,1605,3075,1474
1506,1636,3075,1455
1488,1385,3075,1478
1597,1343,3075,1516
1544,1325,3075,1535
1611,1386,3075,1503
1569,1462,3075,1494
1607,1604,3075,1528
1596,1470,3075,1483
1577,1580,3075,1503
1642,1456,3075,1462
1557,1415,3075,1458
1391,1457,3075,1411
1406,1469,3075,1518
1469,1496,3075,1458
1453,1490,3075,1492
1474,1419,3075,1518
1416,1417,3075,1546
1462,1518,3075,1453
1385,1474,3075,1552
1352,1483,3075,1476
1443,1443,3075,1600
1439,1396,3075,1557
1492,1319,3075,1591
1557,1488,3075,1580
1470,1531,3075,1516
1416,1469,3075,1562
1417,1504,3075,1440
1415,1452,3075,1462
1393,1455,3075,1490
1441,1490,3075,1422
1467,1686,3075,1502
1477,1477,3075,1434
1474,1468,3075,1466
1490,1367,3075,1391
1577,1357,3075,1506
1485,1474,3075,1434
1488,1529,3075,1432
1462,1529,3075,1470
1456,1443,3075,1445
1387,1504,3075,1460
1426,1527,3075,1466
1338,1503,3075,1428
1565,1424,3075,1413
1430,1548,3075,1374
1534,1595,3075,1529
1508,1545,3075,1698
1529,1569,3075,1891
1427,1591,3075,2018
1468,1516,3075,2503
1516,1582,3075,2463
1469,1508,3075,2394
1516,1462,3075,2129
1486,1506,3075,1629
1406,1419,3075,1207
1494,1569,3075,1050
1481,1529,3075,1010
1430,1627,3075,1133
1483,1387,3075,1263
1498,1416,3075,1246
1578,1428,3075,1343
1514,1555,3075,1223
1402,1481,3075,1201
1309,1445,3075,1289
1427,1422,3075,1297
1483,1379,3075,1330
1548,1433,3075,1319
1535,1359,3075,1316
1404,1341,3075,1297
1362,1370,3075,1297
1430,1377,3075,1335
1502,1492,3075,1424
1518,1577,3075,1400
1455,1496,3075,1393
1619,1702,3075,1488
1509,1878,3075,1490
1597,2197,3075,1555
1582,2500,3075,1555
1531,2599,3075,1463
1432,2477,3075,1422
1494,2129,3075,1463
1406,1669,3075,1445
1328,1153,3075,1492
1440,999,3075,1518
1353,887,3075,1535
1545,1089,3075,1588
1490,1133,3075,1521
1488,1207,3075,1478
1497,1198,3075,1490
1393,1153,3075,1527
1379,1318,3075,1635
1469,1234,3075,1637
1411,1309,3075,1684
1443,1323,3075,1684
1299,1406,3075,1562
1377,1366,3075,1590
1359,1416,3075,1513
1529,1328,3075,1566
1636,1290,3075,1544
1842,1315,3075,1547
2050,1344,3075,1580
2287,1441,3075,1582
2471,1366,3075,1508
2613,1343,3075,1580
2296,1432,3075,1557
1963,1473,3075,1561
1478,1573,3075,1496
1134,1445,3075,1476
968,1509,3075,1419
1048,1445,3075,1361
1059,1428,3075,1400
1213,1524,3075,1440
1173,1531,3075,1396
1233,1508,3075,1352
1184,1488,3075,1413
1310,1577,3075,1374
1222,1597,3075,1440
1278,1694,3075,1417
1338,1656,3075,1444
1263,1543,3075,1316
1263,1552,3075,1303
1361,1672,3075,1390
1287,1538,3075,1441
1336,1669,3075,1413
1395,1477,3075,1377
1483,1528,3075,1468
1432,1547,3075,1402
1444,1630,3075,1422
1393,1630,3075,1519
1429,1557,3075,1453
1462,1562,3075,1470
1365,1422,3075,1488
1430,1429,3075,1463
1361,1508,3075,1379
1483,1478,3075,1428
1460,1452,3075,1483
1535,1412,3075,1455
1477,1445,3075,1467
1433,1419,3075,1508
1592,1497,3075,1428
1584,1456,3075,1523
1415,1336,3075,1470
1582,1336,3075,1521
1526,1402,3075,1445
1596,1411,3075,1406
1547,1490,3075,1476
1569,1433,3075,1474
1561,1455,3075,1503
1600,1369,3075,1419
1579,1357,3075,1527
1582,1338,3075,1474
1557,1498,3075,1426
1492,1487,3075,1469
1591,1387,3075,1466
1588,1417,3075,1469
1478,1379,3075,1380
1503,1484,3075,1437
1514,1443,3075,1466
1335,1547,3075,1416
1455,1607,3075,1470
1406,1439,3075,1560
1377,1441,3075,1466
1352,1462,3075,1583
1417,1531,3075,1560
1462,1518,3075,1565
1352,1477,3075,1516
1463,1431,3075,1497
1469,1374,3075,1514
1428,1380,3075,1609
1442,1490,3075,1468
1413,1531,3075,1485
1454,1409,3075,1596
1496,1469,3075,1488
1411,1457,3075,1531
1440,1533,3075,1488
1498,1485,3075,1519
1466,1460,3075,1533
1488,1473,3075,1469
1440,1492,3075,1445
1445,1582,3075,1422
1424,1540,3075,1355
1413,1440,3075,1444
1483,1317,3075,1463
1573,1443,3075,1406
1404,1502,3075,1485
1471,1496,3075,1519
1492,1494,3075,1469
1445,1374,3075,1430
1456,1463,3075,1463
1496,1440,3075,1407
1430,1647,3075,1406
1504,1590,3075,1351
1504,1455,3075,1567
1518,1590,3075,1609
1474,1504,3075,1761
1440,1547,3075,1985
1544,1480,3075,2204
1497,1503,3075,2478
1508,1518,3075,2565
1514,1531,3075,2421
1434,1516,3075,1941
1336,1620,3075,1370
1381,1543,3075,1050
1477,1439,3075,1082
1494,1504,3075,1037
1516,1534,3075,1228
1433,1483,3075,1153
1557,1573,3075,1306
1439,1415,3075,1170
1415,1409,3075,1259
1456,1431,3075,1262
1498,1411,3075,1289
1476,1503,3075,1254
1578,1453,3075,1328
1565,1404,3075,1268
1544,1529,3075,1323
1544,1411,3075,1306
1591,1377,3075,1367
1583,1331,3075,1490
1419,1385,3075,1375
1485,1469,3075,1426
1607,1534,3075,1536
1508,1536,3075,1467
1595,1644,3075,1428
1545,1748,3075,1452
1488,2028,3075,1393
1557,2419,3075,1424
1439,2608,3075,1406
1508,2571,3075,1469
1452,2220,3075,1478
1357,1733,3075,1535
1406,1215,3075,1569
1506,982,3075,1526
1369,944,3075,1547
1444,1083,3075,1516
1467,1114,3075,1595
1508,1159,3075,1615
1404,1162,3075,1533
1390,1268,3075,1607
1477,1373,3075,1544
1460,1351,3075,1646
1485,1276,3075,1591
1419,1267,3075,1611
1401,1317,3075,1572
1411,1457,3075,1541
1566,1381,3075,1593
1746,1323,3075,1671
1980,1393,3075,1613
2249,1280,3075,1546
2503,1300,3075,1619
2635,1433,3075,1565
2475,1494,3075,1607
1963,1424,3075,1497
1534,1544,3075,1521
1204,1439,3075,1439
1025,1458,3075,1477
1108,1419,3075,1466
1173,1338,3075,1490
1132,1406,3075,1396
1136,1428,3075,1387
1163,1557,3075,1445
1229,1534,3075,1417
1211,1597,3075,1419
1290,1681,3075,1457
1306,1682,3075,1518
1260,1469,3075,1366
1336,1514,3075,1411
1302,1531,3075,1422
1309,1560,3075,1427
1306,1628,3075,1424
1331,1549,3075,1456
1428,1502,3075,1555
1444,1521,3075,1439
1391,1538,3075,1521
1386,1490,3075,1445
1466,1513,3075,1560
1466,1674,3075,1432
1529,1669,3075,1456
1538,1583,3075,1462
1478,1555,3075,1483
1413,1466,3075,1457
1443,1488,3075,1455
1463,1494,3075,1480
1468,1488,3075,1494
1463,1483,3075,1509
1440,1455,3075,1496
1583,1417,3075,1469
1488,1433,3075,1440
1538,1432,3075,1490
1565,1409,3075,1490
1543,1369,3075,1463
1512,1323,3075,1506
1499,1289,3075,1566
1526,1393,3075,1569
1557,1426,3075,1519
1535,1455,3075,1545
1659,1428,3075,1512
1604,1344,3075,1541
1546,1433,3075,1453
1607,1315,3075,1478
1523,1305,3075,1555
1453,1462,3075,1442
1428,1406,3075,1494
1498,1596,3075,1468
1432,1440,3075,1407
1583,1477,3075,1441
1560,1470,3075,1533
1453,1440,3075,1538
1439,1401,3075,1470
1413,1483,3075,1468
1407,1453,3075,1553
1455,1441,3075,1534
1428,1521,3075,1611
1415,1483,3075,1588
1427,1483,3075,1616
1391,1521,3075,1561
1343,1442,3075,1555
1302,1484,3075,1644
1428,1478,3075,1647
1352,1514,3075,1609
1326,1445,3075,1560
1535,1444,3075,1600
1440,1469,3075,1548
1533,1483,3075,1508
1518,1441,3075,1457
1464,1401,3075,1466
1460,1518,3075,1428
1443,1456,3075,1473
1406,1419,3075,1383
1445,1432,3075,1411
1377,1437,3075,1445
1428,1545,3075,1508
1533,1457,3075,1560
1543,1578,3075,1456
1433,1483,3075,1445
1548,1503,3075,1428
1485,1419,3075,1485
1387,1426,3075,1456
1457,1478,3075,1488
1469,1396,3075,1492
1401,1628,3075,1561
1488,1528,3075,1730
1450,1453,3075,1980
1490,1504,3075,2275
1600,1565,3075,2487
1456,1490,3075,2622
1569,1543,3075,2665
1415,1457,3075,2203
1387,1572,3075,1709
1463,1528,3075,1300
1440,1424,3075,1050
1462,1523,3075,999
1490,1480,3075,1126
1514,1416,3075,1139
1424,1591,3075,1263
1496,1485,3075,1149
1516,1468,3075,1316
1494,1400,3075,1273
1351,1377,3075,1236
1540,1401,3075,1279
1400,1471,3075,1309
1494,1387,3075,1388
1528,1498,3075,1392
1439,1406,3075,1292
1518,1387,3075,1331
1433,1442,3075,1275
1460,1419,3075,1355
1430,1393,3075,1453
1457,1424,3075,1445
1437,1401,3075,1383
1469,1546,3075,1593
1582,1642,3075,1369
1504,1824,3075,1488
1574,2128,3075,1437
1569,2389,3075,1497
1568,2559,3075,1463
1477,2571,3075,1514
1535,2308,3075,1483
1483,1850,3075,1529
1544,1355,3075,1498
1460,1166,3075,1565
1521,1018,3075,1567
1492,1035,3075,1595
1374,1081,3075,1471
1369,1178,3075,1478
1440,1184,3075,1508
1462,1260,3075,1569
1415,1260,3075,1584
1453,1258,3075,1647
1504,1290,3075,1610
1444,1349,3075,1577
1391,1278,3075,1597
1383,1306,3075,1643
1433,1315,3075,1569
1387,1361,3075,1694
1460,1336,3075,1597
1555,1385,3075,1627
1617,1319,3075,1598
1785,1363,3075,1590
2052,1369,3075,1629
2309,1379,3075,1521
2576,1373,3075,1521
2635,1490,3075,1433
2388,1411,3075,1462
1971,1422,3075,1424
1445,1483,3075,1377
1117,1519,3075,1483
1010,1516,3075,1428
944,1597,3075,1416
1073,1552,3075,1379
1162,1560,3075,1456
1151,1445,3075,1443
1178,1523,3075,1406
1272,1462,3075,1373
1303,1592,3075,1483
1272,1544,3075,1428
1207,1455,3075,1458
1260,1379,3075,1454
1370,1552,3075,1490
1365,1483,3075,1441
1391,1589,3075,1453
1395,1641,3075,1473
1393,1598,3075,1411
1313,1555,3075,1424
1316,1557,3075,1477
1331,1584,3075,1503
1369,1642,3075,1424
1411,1578,3075,1490
1430,1565,3075,1463
1476,1492,3075,1433
1490,1629,3075,1516
1365,1543,3075,1490
1546,1426,3075,1616
1416,1445,3075,1483
1528,1506,3075,1504
1578,1377,3075,1513
1555,1383,3075,1521
1477,1365,3075,1588
1565,1426,3075,1432
1462,1400,3075,1422
1503,1428,3075,1428
1531,1382,3075,1455
1526,1488,3075,1483
1741,1419,3075,1503
1565,1428,3075,1516
1514,1411,3075,1488
1605,1409,3075,1480
1521,1379,3075,1514
1597,1388,3075,1392
1543,1419,3075,1526
1624,1362,3075,1494
1514,1445,3075,1535
1557,1514,3075,1457
1490,1424,3075,1528
1538,1430,3075,1549
1519,1387,3075,1424
1557,1466,3075,1624
1535,1416,3075,1484
1432,1456,3075,1406
1462,1439,3075,1427
1504,1494,3075,1497
1419,1469,3075,1566
1339,1458,3075,1572
1488,1474,3075,1588
1466,1445,3075,1565
1456,1516,3075,1592
1388,1528,3075,1584
1456,1514,3075,1535
1409,1478,3075,1624
1344,1457,3075,1543
1464,1490,3075,1516
1379,1407,3075,1541
1338,1473,3075,1504
1401,1428,3075,1453
1424,1460,3075,1470
1484,1490,3075,1490
1379,1528,3075,1485
1473,1457,3075,1441
1498,1462,3075,1457
1531,1382,3075,1393
1543,1456,3075,1463
1545,1424,3075,1412
1527,1497,3075,1527
1375,1471,3075,1497
1469,1611,3075,1468
1490,1599,3075,1437
1444,1492,3075,1439
1416,1468,3075,1481
1528,1391,3075,1382
1429,1468,3075,1504
1531,1474,3075,1521
1483,1635,3075,1591
1393,1609,3075,1880
1567,1513,3075,2150
1411,1508,3075,2465
1383,1437,3075,2638
1513,1516,3075,2747
1445,1545,3075,2422
1478,1595,3075,1939
1485,1535,3075,1427
1478,1569,3075,1099
1529,1463,3075,975
1385,1533,3075,982
1531,1516,3075,1162
1419,1477,3075,1142
1390,1440,3075,1223
1466,1445,3075,1183
1480,1430,3075,1260
1444,1426,3075,1228
1548,1426,3075,1341
1468,1443,3075,1361
1468,1535,3075,1263
1424,1512,3075,1279
1429,1478,3075,1260
1547,1419,3075,1351
1441,1445,3075,1275
1416,1422,3075,1344
1496,1427,3075,1400
1535,1419,3075,1456
1521,1477,3075,1409
1569,1636,3075,1365
1596,1748,3075,1433
1593,1980,3075,1385
1519,2302,3075,1498
1518,2521,3075,1526
1566,2681,3075,1506
1538,2554,3075,1433
1456,2028,3075,1455
1637,1411,3075,1428
1588,1141,3075,1490
1638,968,3075,1445
1591,1104,3075,1566
1526,1160,3075,1577
1258,1163,3075,1523
1400,1140,3075,1597
1428,1223,3075,1529
1485,1254,3075,1566
1473,1254,3075,1573
1430,1258,3075,1624
1411,1246,3075,1666
1440,1266,3075,1636
1380,1292,3075,1544
1393,1302,3075,1583
1381,1323,3075,1617
1385,1341,3075,1615
1419,1406,3075,1609
1456,1361,3075,1637
1396,1441,3075,1535
1494,1474,3075,1485
1557,1380,3075,1476
1884,1441,3075,1528
2100,1464,3075,1443
2357,1494,3075,1457
2679,1441,3075,1490
2527,1430,3075,1401
2224,1365,3075,1468
1750,1401,3075,1460
1236,1430,3075,1470
1070,1428,3075,1440
1039,1445,3075,1374
1153,1444,3075,1393
1134,1473,3075,1419
1091,1518,3075,1424
1273,1529,3075,1430
1192,1567,3075,1433
1233,1469,3075,1417
1178,1528,3075,1325
1284,1565,3075,1406
1279,1619,3075,1440
1276,1555,3075,1445
1267,1573,3075,1471
1352,1521,3075,1533
1362,1628,3075,1483
1387,1596,3075,1502
1462,1483,3075,1431
1411,1527,3075,1559
1455,1516,3075,1387
1357,1490,3075,1497
1395,1474,3075,1514
1440,1466,3075,1498
1379,1528,3075,1516
1417,1540,3075,1561
1494,1413,3075,1521
1362,1413,3075,1508
1428,1440,3075,1431
1527,1454,3075,1481
1488,1540,3075,1494
1557,1411,3075,1473
1547,1426,3075,1521
1580,1396,3075,1544
1543,1388,3075,1441
1624,1401,3075,1503
1597,1401,3075,1365
1709,1428,3075,1457
1543,1387,3075,1441
1590,1441,3075,1503
1583,1366,3075,1557
1471,1455,3075,1483
1383,1488,3075,1390
1473,1480,3075,1454
1567,1395,3075,1523
1620,1373,3075,1548
1566,1469,3075,1445
1514,1474,3075,1463
1547,1503,3075,1406
1519,1455,3075,1455
1580,1460,3075,1547
1646,1430,3075,1531
1379,1478,3075,1466
1462,1443,3075,1409
1453,1485,3075,1526
1452,1424,3075,1508
1416,1473,3075,1535
1385,1445,3075,1580
1467,1433,3075,1504
1393,1441,3075,1543
1393,1424,3075,1568
1528,1463,3075,1567
1290,1577,3075,1642
1490,1610,3075,1697
1222,1535,3075,1588
1504,1484,3075,1546
1406,1488,3075,1469
1490,1428,3075,1428
1514,1466,3075,1441
1534,1470,3075,1490
1440,1445,3075,1417
1406,1469,3075,1424
1469,1504,3075,1470
1416,1490,3075,1406
1417,1473,3075,1440
1470,1467,3075,1433
1473,1468,3075,1454
1443,1455,3075,1419
1393,1441,3075,1464
1441,1529,3075,1492
1403,1463,3075,1462
1501,1439,3075,1403
1460,1567,3075,1374
1635,1573,3075,1409
1409,1527,3075,1406
1531,1529,3075,1569
1490,1462,3075,1763
1480,1494,3075,1974
1478,1516,3075,2267
1496,1483,3075,2474
1516,1591,3075,2689
1469,1538,3075,2427
1439,1572,3075,2024
1428,1543,3075,1584
1443,1508,3075,1217
1462,1430,3075,996
1585,1529,3075,1071
1478,1533,3075,1141
1440,1521,3075,1160
1404,1561,3075,1140
1419,1437,3075,1202
1485,1383,3075,1268
1481,1369,3075,1357
1400,1498,3075,1231
1548,1473,3075,1289
1428,1419,3075,1260
1441,1422,3075,1204
1445,1424,3075,1260
1502,1407,3075,1353
1470,1508,3075,1393
1557,1440,3075,1404
1533,1478,3075,1514
1521,1431,3075,1390
1422,1548,3075,1352
1508,1516,3075,1336
1424,1591,3075,1441
1518,1838,3075,1381
1456,2233,3075,1439
1478,2432,3075,1445
1494,2567,3075,1470
1424,2453,3075,1533
1488,2024,3075,1492
1566,1750,3075,1534
1496,1233,3075,1534
1473,1103,3075,1473
1621,1027,3075,1516
1615,1096,3075,1521
1584,1162,3075,1494
1553,1276,3075,1518
1615,1185,3075,1557
1584,1236,3075,1564
1529,1323,3075,1531
1453,1248,3075,1555
1419,1336,3075,1628
1393,1300,3075,1615
1415,1289,3075,1609
1393,1335,3075,1624
1468,1330,3075,1535
1416,1343,3075,1535
1396,1366,3075,1547
1393,1365,3075,1632
1379,1478,3075,1596
1379,1445,3075,1519
1490,1393,3075,1591
1444,1393,3075,1534
1388,1417,3075,1526
1383,1494,3075,1484
1431,1458,3075,1553
1514,1481,3075,1463
1535,1445,3075,1432
1712,1400,3075,1392
1848,1474,3075,1432
2254,1431,3075,1303
2308,1534,3075,1355
2686,1513,3075,1361
2453,1498,3075,1390
2186,1578,3075,1374
1689,1540,3075,1305
1309,1460,3075,1433
1062,1543,3075,1424
999,1518,3075,1467
1099,1544,3075,1483
1239,1574,3075,1419
1231,1526,3075,1415
1228,1679,3075,1387
1162,1569,3075,1445
1166,1671,3075,1430
1129,1492,3075,1344
1202,1555,3075,1490
1274,1534,3075,1538
1309,1514,3075,1528
1278,1560,3075,1469
1375,1503,3075,1521
1386,1502,3075,1428
1381,1469,3075,1462
1469,1469,3075,1504
1453,1406,3075,1456
1352,1409,3075,1428
1477,1490,3075,1470
1440,1485,3075,1480
1402,1433,3075,1445
1432,1379,3075,1395
1392,1468,3075,1462
1474,1373,3075,1439
1379,1492,3075,1387
1312,1494,3075,1406
1385,1416,3075,1544
1492,1338,3075,1464
1400,1401,3075,1533
1504,1370,3075,1518
1568,1390,3075,1521
1590,1369,3075,1480
1544,1433,3075,1478
1619,1426,3075,1445
1628,1402,3075,1437
1567,1490,3075,1416
1686,1589,3075,1419
1561,1508,3075,1469
1527,1562,3075,1503
1519,1476,3075,1428
1632,1430,3075,1463
1568,1437,3075,1490
1527,1419,3075,1404
1492,1543,3075,1426
1523,1413,3075,1462
1547,1480,3075,1454
1477,1411,3075,1441
1569,1452,3075,1509
1526,1433,3075,1566
1506,1469,3075,1578
1419,1498,3075,1508
1390,1506,3075,1616
1545,1470,3075,1513
1351,1456,3075,1555
1480,1430,3075,1488
1462,1413,3075,1561
1416,1484,3075,1457
1428,1533,3075,1492
1409,1467,3075,1488
1411,1492,3075,1477
1416,1469,3075,1473
1422,1406,3075,1422
1516,1432,3075,1411
1325,1428,3075,1377
1490,1456,3075,1292
1355,1544,3075,1416
1509,1470,3075,1419
1375,1573,3075,1419
1365,1466,3075,1430
1566,1469,3075,1424
1492,1428,3075,1466
1496,1424,3075,1466
1478,1456,3075,1478
1503,1467,3075,1415
1390,1535,3075,1388
1473,1497,3075,1473
1567,1481,3075,1567
1455,1543,3075,1821
1490,1529,3075,2019
1544,1529,3075,2292
1506,1492,3075,2503
1445,1543,3075,2524
1527,1622,3075,2175
1476,1623,3075,1809
1519,1557,3075,1433
1424,1496,3075,1097
1396,1455,3075,999
1546,1470,3075,1078
1457,1401,3075,1116
1523,1477,3075,1199
1445,1441,3075,1284
1406,1464,3075,1201
1452,1432,3075,1173
1557,1416,3075,1211
1514,1401,3075,1209
1565,1413,3075,1303
1445,1483,3075,1272
1474,1483,3075,1323
1526,1469,3075,1385
1543,1516,3075,1412
1504,1468,3075,1308
1548,1469,3075,1424
1463,1415,3075,1361
1424,1463,3075,1315
1386,1458,3075,1413
1428,1547,3075,1433
1437,1548,3075,1401
1396,1821,3075,1533
1543,2126,3075,1488
1605,2323,3075,1561
1531,2552,3075,1468
1564,2503,3075,1391
1565,2055,3075,1432
1416,1521,3075,1416
1509,1258,3075,1533
1457,1020,3075,1513
1457,1071,3075,1513
1503,1138,3075,1490
1518,1207,3075,1477
1577,1204,3075,1591
1490,1216,3075,1533
1514,1236,3075,1541
1480,1260,3075,1533
1508,1275,3075,1543
1573,1287,3075,1569
1535,1308,3075,1596
1592,1359,3075,1635
1588,1323,3075,1641
1590,1357,3075,1583
1567,1370,3075,1562
1624,1379,3075,1641
1424,1374,3075,1560
1498,1366,3075,1456
1494,1401,3075,1545
1534,1428,3075,1572
1411,1365,3075,1534
1401,1441,3075,1514
1444,1422,3075,1492
1433,1406,3075,1455
1427,1445,3075,1428
1411,1473,3075,1343
1457,1416,3075,1413
1336,1478,3075,1383
1431,1529,3075,1325
1388,1546,3075,1409
1453,1565,3075,1437
1388,1564,3075,1379
1326,1508,3075,1404
1476,1467,3075,1470
1543,1504,3075,1355
1795,1560,3075,1381
2016,1605,3075,1386
2318,1569,3075,1377
2463,1565,3075,1326
2715,1592,3075,1396
2435,1560,3075,1426
2023,1547,3075,1492
1573,1648,3075,1445
1223,1591,3075,1490
998,1565,3075,1488
1064,1424,3075,1452
1159,1557,3075,1508
1162,1474,3075,1456
1206,1494,3075,1466
1289,1582,3075,1424
1188,1419,3075,1396
1287,1370,3075,1476
1173,1330,3075,1445
1201,1490,3075,1437
1281,1386,3075,1496
1274,1477,3075,1503
1278,1411,3075,1437
1316,1417,3075,1504
1374,1386,3075,1467
1201,1431,3075,1424
1401,1424,3075,1416
1361,1460,3075,1514
1379,1406,3075,1565
1494,1409,3075,1498
1385,1412,3075,1514
1501,1366,3075,1503
1521,1387,3075,1534
1416,1395,3075,1478
1440,1395,3075,1478
1444,1411,3075,1455
1393,1413,3075,1474
1391,1488,3075,1471
1478,1494,3075,1508
1531,1468,3075,1455
1555,1428,3075,1426
1555,1533,3075,1426
1514,1457,3075,1488
1584,1469,3075,1424
1528,1502,3075,1457
1538,1483,3075,1492
1544,1468,3075,1488
1458,1503,3075,1419
1572,1494,3075,1470
1548,1462,3075,1456
1583,1462,3075,1456
1471,1457,3075,1513
1611,1481,3075,1535
1514,1456,3075,1538
1572,1469,3075,1456
1463,1443,3075,1531
1531,1483,3075,1519
1555,1463,3075,1523
1490,1492,3075,1490
1540,1462,3075,1529
1634,1492,3075,1621
1462,1584,3075,1666
1411,1469,3075,1540
1469,1519,3075,1531
1473,1443,3075,1580
1432,1428,3075,1580
1531,1441,3075,1513
1407,1433,3075,1452
1428,1467,3075,1393
1387,1478,3075,1303
1422,1464,3075,1445
1424,1463,3075,1473
1336,1478,3075,1400
1441,1473,3075,1452
1419,1466,3075,1480
1516,1460,3075,1464
1433,1462,3075,1379
1555,1460,3075,1428
1433,1496,3075,1397
1437,1521,3075,1444
1502,1506,3075,1343
1473,1504,3075,1469
1473,1521,3075,1428
1419,1477,3075,1373
1508,1492,3075,1535
1474,1415,3075,1595
1457,1466,3075,1769
1445,1597,3075,2085
1494,1610,3075,2368
1494,1480,3075,2527
1569,1566,3075,2599
1508,1557,3075,2419
1607,1444,3075,2063
1411,1457,3075,1453
1516,1509,3075,1196
1419,1431,3075,974
1417,1463,3075,982
1363,1432,3075,1141
1416,1426,3075,1162
1535,1433,3075,1274
1469,1445,3075,1222
1492,1442,3075,1108
1531,1498,3075,1189
1430,1454,3075,1166
1474,1469,3075,1170
1484,1467,3075,1262
1566,1453,3075,1276
1543,1444,3075,1341
1468,1466,3075,1341
1494,1503,3075,1343
1437,1473,3075,1331
1508,1562,3075,1325
1455,1790,3075,1396
1483,2142,3075,1457
1492,2347,3075,1430
1477,2594,3075,1406
1432,2576,3075,1454
1569,2176,3075,1494
1463,1686,3075,1454
1466,1263,3075,1555
1468,1050,3075,1445
1518,1065,3075,1460
1392,1163,3075,1403
1466,1184,3075,1377
1439,1204,3075,1496
1503,1220,3075,1506
1531,1223,3075,1466
1506,1260,3075,1498
1512,1286,3075,1578
1439,1258,3075,1557
1504,1338,3075,1574
1503,1328,3075,1595
1477,1325,3075,1557
1463,1326,3075,1591
1483,1349,3075,1595
1506,1365,3075,1768
1569,1404,3075,1577
1538,1382,3075,1569
1557,1406,3075,1545
1635,1395,3075,1533
1557,1441,3075,1518
1642,1413,3075,1590
1588,1432,3075,1521
1572,1417,3075,1445
1546,1457,3075,1591
1607,1426,3075,1545
1504,1455,3075,1473
1488,1460,3075,1509
1357,1531,3075,1441
1454,1460,3075,1445
1427,1516,3075,1456
1480,1483,3075,1417
1490,1580,3075,1428
1406,1516,3075,1452
1375,1478,3075,1325
1433,1508,3075,1383
1471,1468,3075,1426
1437,1591,3075,1453
1440,1496,3075,1428
1462,1531,3075,1401
1415,1529,3075,1478
1369,1562,3075,1377
1289,1671,3075,1375
1490,1538,3075,1417
1628,1514,3075,1330
1787,1428,3075,1480
2168,1427,3075,1437
2367,1518,3075,1445
2559,1572,3075,1476
2604,1607,3075,1455
2394,1518,3075,1516
1912,1528,3075,1502
1343,1432,3075,1508
1146,1452,3075,1490
1004,1580,3075,1531
1011,1445,3075,1527
1149,1415,3075,1428
1115,1401,3075,1545
1228,1393,3075,1477
1111,1445,3075,1490
1188,1424,3075,1422
1290,1422,3075,1504
1249,1424,3075,1419
1225,1456,3075,1445
1325,1440,3075,1460
1355,1490,3075,1430
1390,1457,3075,1437
1303,1455,3075,1432
1379,1437,3075,1513
1300,1428,3075,1485
1302,1462,3075,1456
1351,1457,3075,1607
1325,1543,3075,1503
1312,1468,3075,1509
1352,1468,3075,1498
1366,1445,3075,1477
1478,1462,3075,1455
1466,1462,3075,1417
1379,1464,3075,1379
1453,1468,3075,1406
1466,1477,3075,1424
1483,1467,3075,1367
1564,1463,3075,1502
1579,1466,3075,1519
1544,1468,3075,1445
1458,1473,3075,1478
1621,1478,3075,1513
1496,1473,3075,1458
1555,1469,3075,1369
1635,1468,3075,1464
1565,1478,3075,1456
1506,1477,3075,1527
1509,1473,3075,1477
1557,1473,3075,1544
1526,1466,3075,1535
1616,1488,3075,1531
1591,1470,3075,1492
1628,1483,3075,1406
1598,1471,3075,1388
1591,1483,3075,1377
1535,1476,3075,1483
1569,1483,3075,1574
1528,1477,3075,1531
1524,1490,3075,1518
1485,1483,3075,1494
1457,1478,3075,1572
1516,1498,3075,1567
1534,1502,3075,1615
1478,1486,3075,1582
1388,1492,3075,1560
1343,1480,3075,1503
1366,1477,3075,1509
1424,1478,3075,1496
1433,1477,3075,1478
1442,1485,3075,1561
1440,1552,3075,1513
1456,1531,3075,1478
1454,1529,3075,1375
1469,1498,3075,1474
1424,1439,3075,1411
1336,1467,3075,1452
1478,1468,3075,1365
1441,1485,3075,1415
1417,1504,3075,1353
1481,1490,3075,1455
1458,1485,3075,1468
1463,1477,3075,1494
1463,1518,3075,1439
1480,1598,3075,1365
1494,1561,3075,1406
1460,1535,3075,1379
1496,1553,3075,1437
1496,1443,3075,1691
1509,1445,3075,1918
1456,1462,3075,2212
1456,1504,3075,2492
1529,1467,3075,2659
1445,1473,3075,2683
1492,1498,3075,2273
1473,1473,3075,1874
1544,1468,3075,1294
1413,1463,3075,1087
1432,1466,3075,927
1441,1460,3075,1183
1494,1462,3075,1071
1478,1469,3075,1115
1444,1466,3075,1172
1478,1490,3075,1166
1457,1467,3075,1216
1476,1473,3075,1300
1484,1463,3075,1311
1538,1473,3075,1228
1445,1478,3075,1266
1483,1770,3075,1201
1568,2045,3075,1351
1453,2421,3075,1285
1445,2677,3075,1313
1428,2700,3075,1328
1428,2375,3075,1355
1445,1989,3075,1321
1573,1323,3075,1406
1523,1134,3075,1427
1547,1008,3075,1426
1437,1095,3075,1379
1362,1140,3075,1443
1419,1191,3075,1428
1393,1184,3075,1424
1488,1224,3075,1440
1490,1260,3075,1445
1443,1241,3075,1468
1483,1281,3075,1535
1430,1281,3075,1534
1513,1303,3075,1624
1462,1299,3075,1543
1504,1328,3075,1470
1596,1338,3075,1506
1502,1351,3075,1565
1502,1365,3075,1548
1433,1374,3075,1582
1619,1393,3075,1613
1580,1401,3075,1555
1474,1393,3075,1585
1474,1415,3075,1543
1417,1426,3075,1535
1480,1428,3075,1552
1508,1433,3075,1543
1624,1431,3075,1648
1609,1422,3075,1623
1508,1433,3075,1604
1615,1433,3075,1508
1526,1460,3075,1516
1521,1506,3075,1490
1488,1473,3075,1502
1580,1478,3075,1538
1437,1453,3075,1477
1424,1445,3075,1477
1478,1452,3075,1442
1416,1506,3075,1441
1419,1514,3075,1380
1437,1516,3075,1351
1443,1529,3075,1437
1424,1526,3075,1440
1474,1565,3075,1375
1441,1534,3075,1353
1417,1607,3075,1361
1413,1669,3075,1415
1355,1572,3075,1336
1477,1543,3075,1467
1428,1424,3075,1367
1503,1393,3075,1361
1494,1443,3075,1428
1750,1468,3075,1569
2055,1531,3075,1439
2347,1514,3075,1419
2607,1569,3075,1419
2576,1428,2925,1496
2302,1458,2801,1437
1911,1424,2645,1462
1352,1469,2557,1477
1122,1413,2386,1503
1018,1433,2290,1490
1065,1444,2085,1592
1122,1443,1540,1428
1112,1439,237,1415
1107,1424,4,1462
1266,1441,0,1469
1248,1445,0,1579
1229,1462,0,1413
1328,1469,0,1516
1231,1443,0,1487
1265,1469,0,1504
1343,1462,0,1498
1317,1496,0,1518
1411,1470,0,1533
1292,1468,0,1377
1365,1468,0,1456
1445,1474,0,1470
1478,1483,0,1460
1452,1531,0,1555
1456,1483,0,1481
1463,1476,0,1427
1419,1452,0,1474
1393,1460,0,1467
1437,1476,0,1478
1344,1470,0,1455
1484,1474,0,1411
1516,1462,0,1440
1548,1469,0,1577
1504,1466,0,1396
1547,1485,0,1469
1615,1473,0,1526
1494,1508,0,1483
1584,1460,91,1456
1457,1490,210,1415
1637,1485,316,1452
1508,1504,316,1406
1555,1483,382,1473
1583,1488,484,1456
1526,1474,435,1445
1604,1468,553,1456
1528,1483,562,1538
1636,1483,617,1577
1582,1462,619,1492
1543,1486,796,1455
1540,1477,958,1470
1441,1469,1260,1416
1531,1480,1548,1473
1490,1481,1824,1531
1528,1492,2043,1490
1483,1484,2142,1456
1488,1488,1900,1484
1463,1480,1432,1508
1512,1494,1061,1497
1445,1485,732,1597
1440,1490,593,1452
1428,1468,669,1578
1518,1487,710,1543
1391,1473,803,1488
1377,1492,878,1595
1407,1473,929,1607
1330,1492,943,1559
1393,1484,1011,1445
1344,1498,1031,1487
1463,1488,943,1445
1473,1490,895,1477
1411,1490,949,1498
1463,1504,1013,1502
1383,1494,1055,1463
1370,1492,1173,1393
1400,1485,1125,1437
1462,1488,1153,1466
1352,1464,1118,1404
1379,1590,1178,1445
1456,1528,1173,1477
1393,1526,1231,1457
1519,1443,1312,1452
1480,1478,1315,1455
1441,1480,1263,1388
1391,1453,1217,1351
1494,1468,1328,1357
1490,1462,1369,1440
1527,1488,1352,1456
1456,1477,1313,1591
1411,1476,1353,1709
1478,1477,1285,2098
1428,1478,1365,2310
1486,1478,1374,2514
1483,1469,1468,2636
1538,1469,1561,2407
1480,1466,1457,1865
1433,1460,1531,1412
1490,1480,1462,1103
1460,1480,1428,971
1513,1481,1516,1007
1469,1496,1531,1178
1513,1555,1463,1223
1406,1735,1460,1183
1553,2119,1477,1202
1374,2357,1485,1185
1473,2581,1416,1222
1300,2468,1456,1265
1419,2126,1516,1278
1604,1665,1492,1361
1469,1275,1490,1285
1575,1107,1467,1285
1492,1108,1483,1413
1468,1185,1380,1428
1477,1223,1432,1317
1428,1228,1374,1392
1514,1248,1478,1432
1431,1276,1299,1411
1374,1276,1336,1387
1516,1316,1299,1513
1456,1316,1268,1419
1411,1338,1273,1468
1422,1342,1455,1411
1391,1338,1403,1477
1440,1355,1388,1483
1417,1366,1463,1469
1527,1391,1369,1443
1538,1406,1339,1521
1468,1393,1309,1488
1553,1403,1393,1574
1607,1426,1441,1508
1497,1419,1514,1578
1605,1432,1388,1509
1615,1432,1351,1561
1526,1443,1413,1578
1577,1445,1385,1478
1455,1437,1406,1617
1555,1445,1470,1741
1526,1466,1363,1595
1473,1455,1428,1607
1470,1463,1492,1590
1528,1462,1379,1596
1393,1484,1454,1646
1466,1544,1439,1679
1474,1492,1406,1562
1466,1488,1492,1569
1476,1544,1419,1457
1463,1506,1437,1483
1460,1503,1396,1506
1331,1504,1430,1504
1391,1490,1565,1415
1443,1478,1608,1471
1531,1514,1411,1521
1373,1466,1339,1460
1483,1656,1343,1453
1251,1593,1336,1401
1442,1607,1478,1377
1462,1595,1424,1343
1741,1470,3075,1483
1934,1509,2047,1411
2249,1458,2172,1433
2407,1462,1937,1386
2638,1432,1228,1443
2414,1415,1284,1369
2030,1473,1365,1343
1572,1533,1569,1383
1220,1480,1388,1498
1022,1456,1276,1331
1026,1401,1388,1478
1183,1422,1390,1391
1183,1453,1308,1441
1201,1454,1303,1470
1108,1455,1433,1468
1251,1434,1393,1478
1173,1432,1353,1502
1151,1445,1331,1357
1204,1442,1504,1411
1289,1455,1401,1441
1297,1457,1377,1518
1406,1456,1305,1441
1343,1460,1387,1535
1365,1455,1365,1437
1366,1478,1369,1469
1431,1468,1503,1504
1483,1476,1323,1573
1411,1468,1366,1426
1403,1473,1385,1460
1375,1474,1457,1404
1529,1483,1478,1455
1427,1481,1380,1490
1428,1484,1265,1526
1494,1477,1261,1480
1413,1478,1325,1413
1445,1477,1492,1458
1508,1473,1488,1429
1548,1474,1363,1498
1546,1466,1365,1392
1444,1483,1344,1422
1578,1561,1388,1514
1540,1483,1433,1469
1506,1504,1424,1504
1712,1469,1615,1523
1588,1453,1469,1503
1569,1462,1466,1521
1596,1484,1540,1519
1567,1480,1422,1552
1504,1478,1468,1483
1591,1492,1545,1526
1566,1483,1480,1393
1659,1478,1585,1412
1592,1470,1610,1415
1562,1480,1624,1416
1578,1477,1538,1492
1526,1494,1416,1470
1528,1473,1302,1385
1514,1469,1428,1428
1439,1468,1428,1471
1452,1478,1379,1521
1422,1484,1503,1440
1498,1502,1409,1543
1480,1492,1419,1508
1456,1494,1401,1462
1388,1490,1466,1516
1441,1483,1415,1490
1430,1490,1411,1541
1338,1476,1336,1437
1302,1490,1355,1504
1396,1483,1338,1545
1462,1474,1474,1578
1388,1483,1474,1561
1496,1474,1712,1600
1401,1474,1934,1513
1365,1478,2416,1538
1483,1516,2484,1565
1470,1504,2721,1544
1430,1490,2345,1496
1480,1492,1955,1439
1430,1573,1411,1456
1496,1521,1035,1503
1486,1516,913,1453
1469,1528,962,1452
1428,1473,963,1428
1445,1504,1064,1415
1426,1483,1103,1406
1424,1462,1188,1445
1419,1473,1141,1457
1452,1478,1279,1341
1513,1487,1341,1462
1529,1469,1308,1437
1480,1474,1228,1440
1467,1478,1323,1433
1494,1483,1316,1396
1529,1484,1313,1473
1445,1474,1215,1467
1365,1478,1292,1646
1473,1477,1305,1900
1453,1476,1357,2142
1516,1478,1439,2316
1441,1478,1391,2571
1528,1483,1417,2435
1452,1462,1355,2082
1478,1488,1359,1658
1513,1684,1463,1222
1413,1671,1480,1129
1381,2005,1490,1012
1471,2322,1445,1146
1385,2503,1379,1139
1543,2489,1415,1241
1483,2238,1494,1173
1519,1786,1580,1275
1411,1316,1526,1292
1490,1122,1569,1211
1428,1067,1490,1224
1523,1153,1567,1265
1531,1209,1456,1284
1444,1228,1610,1317
1374,1289,1469,1338
1445,1279,1569,1422
1453,1278,1478,1406
1424,1290,1624,1404
1478,1308,1552,1396
1518,1323,1561,1359
1404,1338,1543,1430
1534,1351,1567,1422
1503,1355,1617,1513
1518,1377,1600,1457
1460,1383,1452,1437
1481,1401,1544,1456
1477,1406,1478,1478
1540,1407,1416,1437
1548,1411,1552,1566
1531,1417,1572,1596
1509,1428,1567,1540
1518,1424,1413,1560
1573,1445,1370,1445
1555,1531,1292,1453
1533,1484,1319,1474
1521,1456,1422,1533
1590,1440,1411,1544
1607,1453,1308,1577
1490,1516,1391,1483
1598,1488,1428,1538
1538,1457,1404,1572
1513,1478,1498,1568
1430,1477,1477,1616
1415,1502,1439,1634
1297,1544,1456,1647
1473,1528,1453,1573
1464,1473,1443,1637
1508,1540,1445,1621
1428,1568,1328,1535
1415,1577,1391,1535
1401,1572,1419,1579
1401,1557,1373,1535
1483,1561,1538,1506
1411,1580,1508,1481
1463,1648,1504,1413
1415,1483,1428,1417
1353,1553,1455,1411
1561,1569,1516,1413
1800,1483,1463,1427
2091,1477,1531,1381
2368,1496,1545,1426
2581,1513,1455,1471
2617,1463,1453,1393
2290,1431,1503,1393
1918,1490,1538,1379
1338,1477,1432,1409
1153,1422,1483,1441
1032,1416,1477,1365
1097,1383,1437,1485
1233,1406,1401,1374
1137,1413,1443,1416
1167,1483,1457,1466
1222,1519,1444,1416
1272,1428,1468,1393
1222,1455,1527,1406
1216,1415,1557,1437
1343,1412,1456,1488
1278,1417,1424,1417
1303,1548,1526,1455
1457,1453,1445,1443
1382,1462,1544,1432
1279,1469,1503,1468
1357,1579,1470,1439
1406,1516,1508,1494
1305,1483,1531,1406
1428,1506,1441,1531
1501,1428,1411,1536
1400,1458,1385,1569
1432,1528,1393,1512
1355,1445,1458,1428
1400,1485,1460,1440
1393,1440,1508,1379
1439,1604,1483,1406
1506,1637,1537,1483
1492,1516,1533,1477
1476,1494,1463,1419
1488,1401,1516,1456
1521,1393,1582,1478
1549,1503,1615,1457
1469,1538,1468,1490
1596,1622,1457,1518
1552,1478,1341,1473
1494,1473,1404,1411
1578,1442,1526,1428
1529,1488,1463,1518
1516,1492,1503,1516
1617,1483,1460,1464
1560,1540,1437,1541
1641,1608,1488,1460
1600,1538,1419,1456
1504,1569,1686,1445
1644,1457,1642,1456
1518,1494,1634,1443
1469,1516,1483,1466
1504,1552,1604,1545
1584,1439,1484,1543
1535,1432,1597,1455
1518,1476,1569,1429
1456,1516,1611,1422
1469,1516,1466,1430
1430,1568,1504,1445
1422,1485,1561,1428
1468,1416,1566,1513
1362,1559,1541,1478
1498,1498,1572,1483
1343,1591,1580,1470
1353,1577,1572,1483
1357,1504,1497,1365
1374,1445,1433,1529
1430,1580,1373,1535
1404,1540,1343,1512
1379,1534,1379,1547
1455,1569,1460,1535
1443,1527,1473,1574
1432,1526,1441,1504
1452,1572,1496,1523
1480,1513,1455,1528
1504,1561,1415,1526
1437,1529,1548,1535
1488,1624,1712,1560
1492,1597,1702,1478
1494,1526,1870,1518
1555,1569,2085,1428
1504,1483,2330,1445
1502,1492,2491,1506
1478,1468,2663,1424
1335,1597,2238,1540
1428,1523,1880,1443
1379,1504,1401,1452
1439,1509,1189,1471
1561,1506,1047,1411
1514,1504,1071,1460
1462,1433,1050,1415
1467,1406,1198,1406
1584,1396,1186,1415
1548,1404,1198,1391
1483,1416,1303,1313
1543,1456,1289,1437
1496,1471,1474,1470
1470,1453,1453,1572
1440,1455,1366,1783
1485,1490,1424,2028
1483,1541,1406,2272
1437,1647,1403,2473
1373,1949,1339,2631
1463,2280,1355,2503
1441,2492,1284,2041
1454,2679,1441,1518
1445,2619,1565,1185
1429,2339,1568,1070
1463,1874,1524,1013
1566,1328,1580,1184
1428,1111,1445,1107
1516,948,1411,1118
1485,1065,1514,1147
1498,1173,1508,1173
1526,1157,1419,1289
1504,1199,1497,1176
1406,1188,1488,1239
1497,1207,1552,1249
1393,1220,1548,1292
1388,1225,1555,1263
1531,1279,1630,1357
1490,1309,1637,1439
1361,1323,1545,1290
1503,1432,1629,1413
1607,1383,1583,1377
1620,1344,1584,1342
1460,1379,1659,1341
1555,1417,1566,1506
1406,1396,1577,1497
1469,1419,1588,1456
1506,1428,1729,1422
1592,1444,1684,1377
1543,1513,1545,1437
1560,1480,1513,1424
1647,1473,1514,1541
1591,1492,1468,1502
1534,1557,1428,1516
1580,1437,1536,1516
1605,1619,1552,1514
1444,1547,1483,1560
1351,1531,1578,1433
1445,1583,1538,1533
1355,1588,1445,1610
1468,1609,1401,1572
1352,1565,1396,1555
1393,1516,1443,1604
1458,1533,1452,1622
1417,1529,1413,1583
1557,1516,1483,1621
1547,1642,1488,1604
1428,1635,1483,1580
1317,1607,1370,1573
1402,1694,1531,1567
1365,1526,1401,1561
1477,1649,1462,1490
1473,1588,1416,1579
1615,1597,1503,1561
1906,1636,1402,1503
2180,1508,1416,1526
2498,1592,1387,1468
2704,1503,1412,1509
2576,1533,1455,1400
2085,1624,1492,1377
1775,1483,1569,1492
1262,1390,1469,1450
1024,1300,1490,1385
1034,1300,1526,1369
1162,1326,1494,1369
1173,1462,1513,1365
1173,1290,1494,1355
1159,1494,1566,1411
1178,1471,1572,1387
1262,1437,1474,1370
1273,1413,1557,1427
1382,1428,1469,1456
1228,1417,1490,1466
1189,1422,1543,1377
1248,1470,1518,1428
1338,1535,1430,1455
1352,1424,1382,1453
1365,1596,1411,1452
1383,1543,1457,1523
1379,1514,1456,1456
1365,1393,1483,1492
1290,1366,1518,1483
1352,1427,1498,1516
1353,1426,1445,1456
1393,1430,1468,1413
1529,1592,1395,1443
1496,1460,1533,1502
1453,1426,1514,1415
1591,1374,1565,1464
1496,1462,1566,1647
1462,1445,1483,1426
1488,1496,1454,1483
1569,1523,1492,1557
1577,1490,1477,1545
1562,1641,1564,1469
1516,1473,1504,1480
1516,1478,1488,1508
1406,1504,1419,1463
1406,1469,1315,1433
1494,1526,1607,1502
1588,1470,1456,1470
1609,1514,1497,1514
1611,1445,1441,1460
1514,1443,1393,1516
1646,1441,1494,1445
1658,1538,1533,1492
1687,1445,1578,1468
1637,1503,1555,1593
1567,1439,1432,1474
1519,1383,1432,1415
1480,1519,1463,1473
1559,1514,1494,1428
1478,1634,1457,1407
1437,1644,1528,1483
1521,1484,1509,1501
1416,1432,1379,1509
1504,1317,1498,1478
1415,1383,1494,1454
1353,1457,1433,1521
1297,1494,1428,1508
1391,1538,1560,1466
1401,1569,1485,1518
1413,1533,1463,1460
1365,1411,1531,1462
1393,1445,1573,1488
1492,1369,1545,1518
1445,1416,1591,1538
1485,1577,1607,1396
1480,1566,1506,1477
1454,1580,1512,1467
1406,1516,1623,1468
1411,1528,1529,1533
1506,1516,1540,1573
1426,1541,1469,1453
1426,1561,1488,1483
1424,1678,1431,1533
1464,1611,1393,1600
1427,1724,1407,1569
1456,1577,1488,1611
1535,1535,1439,1560
1460,1513,1433,1567
1483,1470,1469,1557
1483,1469,1428,1566
1524,1471,1367,1557
1521,1417,1365,1573
1406,1309,1412,1498
1480,1521,1365,1478
1474,1365,1369,1526
1369,1488,1440,1412
1483,1404,1503,1506
1512,1424,1572,1432
1509,1352,1689,1415
1456,1513,1834,1377
1401,1473,2012,1409
1466,1490,2290,1442
1504,1393,2525,1419
1379,1468,2658,1473
1580,1463,2388,1467
1529,1496,1927,1430
1492,1578,1494,1483
1540,1787,1127,1440
1428,2086,953,1457
1411,2337,987,1367
1440,2560,1134,1455
1513,2710,1114,1705
1462,2532,1151,1895
1422,2180,1125,2261
1483,1647,1223,2555
1439,1233,1250,2691
1403,895,1290,2596
1400,824,1366,2222
1518,1117,1365,1748
1546,1056,1365,1276
1453,1153,1268,1057
1516,1157,1311,984
1453,1196,1303,1139
1424,1162,1251,1188
1413,1209,1365,1162
1494,1379,1306,1175
1513,1365,1400,1136
1502,1315,1516,1191
1524,1355,1471,1236
1483,1303,1592,1343
1437,1263,1519,1276
1497,1381,1466,1341
1456,1365,1514,1369
1528,1352,1462,1338
1492,1344,1416,1338
1552,1330,1524,1323
1676,1419,1462,1353
1597,1433,1428,1406
1547,1396,1432,1344
1595,1545,1474,1473
1545,1492,1534,1385
1569,1411,1521,1463
1411,1534,1604,1416
1401,1557,1674,1494
1409,1529,1521,1490
1397,1516,1574,1431
1466,1555,1528,1365
1498,1467,1543,1496
1498,1496,1584,1483
1385,1538,1632,1557
1535,1529,1595,1567
1445,1578,1634,1562
1442,1535,1557,1582
1513,1483,1560,1644
1387,1613,1514,1681
1355,1552,1543,1519
1393,1580,1529,1585
1516,1641,1547,1600
1452,1579,1445,1592
1431,1557,1445,1562
1535,1597,1523,1524
1713,1533,1453,1573
1840,1578,1444,1526
2272,1642,1406,1533
2544,1504,1413,1646
2658,1466,1362,1682
2364,1504,1393,1604
1925,1474,1391,1622
1462,1548,1427,1629
1186,1455,1401,1531
996,1325,1393,1547
1035,1381,1428,1529
1170,1377,1355,1557
1104,1492,1341,1455
1175,1396,1432,1528
1178,1496,1490,1467
1284,1315,1433,1406
1213,1406,1467,1386
1306,1412,1452,1370
1237,1396,1443,1377
1330,1504,1430,1349
1160,1437,1382,1380
1338,1409,1492,1433
1379,1366,1467,1433
1303,1374,1504,1375
1317,1412,1521,1419
1383,1499,1569,1455
1401,1387,1419,1422
1325,1430,1445,1521
1516,1516,1456,1494
1469,1412,1462,1430
1440,1432,1383,1477
1504,1504,1492,1359
1476,1514,1466,1580
1401,1494,1460,1498
1428,1624,1538,1470
1433,1578,1485,1528
1506,1456,1533,1455
1469,1379,1560,1424
1469,1393,1476,1477
1535,1406,1533,1429
1490,1452,1406,1445
1547,1428,1430,1393
1578,1417,1443,1485
1628,1470,1444,1468
1552,1439,1441,1396
1503,1624,1508,1433
1535,1535,1503,1529
1547,1498,1516,1462
1569,1455,1485,1492
1600,1440,1523,1545
1646,1508,1484,1557
1562,1513,1477,1477
1593,1526,1506,1462
1617,1488,1546,1535
1516,1428,1498,1514
1494,1391,1467,1469
1521,1313,1498,1429
1506,1592,1560,1455
1544,1439,1441,1456
1526,1555,1409,1433
1404,1506,1466,1513
1508,1494,1429,1431
1440,1474,1469,1490
1374,1426,1477,1473
1458,1473,1424,1474
1393,1468,1504,1428
1383,1456,1477,1452
1516,1417,1494,1488
1437,1453,1439,1492
1463,1565,1455,1529
1401,1474,1483,1508
1388,1573,1490,1557
1419,1524,1533,1496
1412,1393,1485,1455
1452,1445,1518,1560
1440,1543,1503,1609
1452,1440,1468,1572
1312,1538,1478,1531
1430,1588,1516,1531
1393,1518,1569,1426
1516,1527,1488,1468
1485,1496,1513,1302
1467,1592,1467,1428
1401,1557,1473,1463
1404,1623,1488,1473
1514,1647,1572,1474
1506,1611,1557,1526
1561,1636,1516,1441
1490,1492,1492,1543
1508,1569,1597,1518
1499,1445,1607,1548
1443,1416,1557,1600
1514,1352,1632,1615
1477,1457,1535,1694
1483,1285,1478,1628
1480,1468,1506,1516
1544,1432,1548,1526
1567,1494,1462,1506
1483,1379,1484,1485
1428,1359,1516,1568
1440,1367,1433,1504
1367,1513,1381,1485
1480,1524,1406,1444
1533,1569,1456,1430
1555,1415,1372,1432
1548,1490,1443,1417
1416,1671,1443,1430
1469,1842,1412,1531
1440,2105,1393,1445
1406,2345,1473,1373
1492,2594,1523,1391
1544,2546,1439,1415
1419,2352,1357,1416
1488,1902,1379,1568
1374,1370,1488,1560
1445,1127,1647,1553
1483,1013,1915,1582
1513,1001,2247,1732
1572,1188,2501,1949
1518,1074,2679,2197
1443,1192,2512,2359
1483,1272,2113,2554
1383,1323,1598,2458
1455,1198,1222,2003
1466,1274,1064,1578
1476,1260,1037,1222
1533,1348,1078,1025
1443,1323,1134,999
1529,1409,1186,1115
1582,1396,1234,1122
1467,1395,1251,1216
1477,1365,1248,1231
1611,1417,1289,1305
1462,1383,1248,1339
1580,1468,1338,1224
1694,1424,1302,1302
1593,1541,1290,1275
1591,1483,1319,1338
1648,1521,1294,1340
1543,1416,1275,1429
1560,1467,1338,1411
1488,1514,1383,1373
1468,1557,1375,1411
1478,1565,1443,1508
1455,1537,1462,1365
1433,1555,1381,1385
1415,1598,1443,1401
1330,1516,1462,1406
1341,1444,1365,1397
1388,1494,1509,1478
1527,1557,1503,1519
1393,1636,1432,1462
1416,1567,1555,1490
1490,1621,1560,1566
1469,1644,1490,1480
1456,1590,1457,1476
1380,1555,1437,1463
1424,1572,1557,1566
1543,1591,1503,1553
1705,1514,1595,1546
1993,1656,1609,1621
2333,1617,1610,1557
2557,1674,1508,1584
2619,1600,1605,1590
2422,1593,1649,1566
1989,1607,1615,1595
1440,1445,1615,1607
1173,1566,1569,1615
1027,1492,1484,1624
1035,1289,1569,1566
1125,1437,1610,1521
1054,1441,1583,1669
1262,1443,1466,1566
1162,1374,1513,1565
1176,1377,1485,1547
1273,1468,1485,1494
1328,1393,1477,1526
1341,1452,1374,1460
1285,1424,1509,1580
1341,1330,1478,1513
1275,1309,1453,1404
1353,1370,1445,1462
1331,1413,1323,1374
1362,1506,1428,1325
1353,1555,1440,1393
1374,1518,1474,1365
1496,1533,1458,1437
1411,1483,1434,1411
1401,1411,1370,1377
1388,1393,1406,1363
1374,1416,1419,1387
1428,1494,1413,1440
1440,1468,1417,1496
1557,1468,1521,1490
1494,1411,1416,1388
1538,1393,1422,1377
1508,1429,1457,1440
1566,1460,1379,1357
1474,1565,1474,1441
1494,1508,1486,1443
1621,1588,1518,1583
1521,1506,1462,1460
1521,1470,1411,1440
1582,1560,1483,1419
1508,1509,1460,1440
1476,1545,1518,1490
1518,1483,1508,1468
1634,1395,1428,1584
1568,1453,1419,1552
1592,1526,1492,1424
1578,1497,1518,1440
1641,1513,1452,1411
1561,1411,1430,1477
1528,1496,1427,1513
1496,1484,1478,1560
1514,1509,1480,1518
1621,1488,1518,1490
1568,1439,1456,1419
1544,1543,1555,1566
1478,1417,1434,1426
1411,1516,1490,1460
1518,1583,1433,1466
1391,1600,1401,1455
1433,1516,1415,1490
1409,1478,1538,1490
1433,1512,1538,1566
1377,1490,1492,1476
1373,1566,1441,1433
1437,1478,1548,1462
1452,1531,1524,1411
1518,1557,1441,1439
1393,1548,1485,1485
1393,1490,1427,1508
1485,1497,1396,1484
1419,1437,1503,1432
1422,1480,1440,1452
1443,1548,1470,1468
1528,1519,1432,1471
1433,1642,1514,1469
1508,1636,1514,1580
1521,1718,1559,1460
1341,1580,1432,1508
1445,1521,1546,1387
1393,1538,1560,1497
1518,1504,1533,1441
1422,1565,1490,1513
1518,1569,1480,1503
1453,1600,1460,1462
1431,1455,1428,1488
1541,1373,1490,1572
1547,1297,1452,1526
1565,1503,1406,1483
1468,1481,1519,1555
1481,1512,1521,1604
1518,1462,1483,1642
1514,1462,1452,1608
1552,1338,1485,1597
1490,1457,1591,1514
1490,1391,1590,1503
1362,1338,1624,1468
1477,1401,1605,1555
1393,1580,1566,1559
1456,1643,1526,1466
1452,1741,1504,1419
1456,1862,1659,1374
1521,2063,1514,1466
1437,2319,1466,1480
1523,2529,1464,1490
1557,2599,1484,1437
1555,2287,1374,1406
1492,1860,1455,1477
1555,1424,1502,1483
1460,1170,1401,1473
1454,904,1466,1353
1483,1081,1483,1370
1428,1073,1480,1439
1483,1201,1387,1516
1474,1281,1419,1437
1544,1393,1388,1496
1516,1343,1411,1545
1540,1249,1404,1677
1388,1185,1450,1850
1531,1209,1516,2275
1361,1239,1503,2460
1545,1336,1533,2610
1361,1429,1746,2415
1582,1344,1990,2076
1453,1276,2287,1557
1599,1292,2486,1239
1534,1374,2622,1115
1490,1445,2286,947
1490,1473,1910,1061
1496,1544,1433,1085
1580,1437,1166,1207
1607,1456,1000,1186
1513,1453,1031,1213
1535,1519,1140,1309
1595,1498,1149,1290
1561,1582,1148,1292
1624,1529,1223,1292
1462,1445,1201,1338
1498,1488,1284,1377
1412,1591,1305,1338
1463,1526,1353,1315
1555,1543,1315,1310
1419,1609,1316,1264
1407,1565,1305,1388
1391,1643,1312,1388
1415,1544,1379,1406
1379,1492,1306,1427
1385,1548,1370,1485
1359,1566,1380,1494
1357,1735,1411,1490
1400,1637,1437,1483
1506,1643,1469,1538
1548,1496,1393,1432
1462,1611,1463,1473
1443,1648,1494,1490
1514,1635,1496,1478
1695,1641,1557,1483
1951,1521,1569,1514
2421,1490,1470,1582
2627,1494,1516,1611
2724,1485,1483,1564
2498,1529,1498,1643
2129,1483,1600,1568
1567,1440,1567,1583
1137,1417,1566,1578
1120,1419,1573,1588
1070,1428,1528,1579
1027,1437,1584,1504
1100,1369,1583,1544
1078,1478,1635,1615
1107,1428,1583,1617
1273,1338,1588,1580
1216,1429,1611,1567
1274,1381,1620,1557
1263,1379,1608,1494
1250,1377,1578,1440
1284,1506,1600,1562
1349,1383,1623,1453
1192,1477,1583,1456
1323,1544,1552,1540
1352,1429,1584,1455
1353,1555,1483,1483
1385,1509,1463,1404
1434,1535,1559,1504
1381,1441,1388,1431
1417,1365,1370,1431
1490,1411,1388,1403
1490,1456,1349,1312
1441,1430,1382,1318
1429,1453,1365,1413
1393,1544,1413,1351
1509,1490,1401,1469
1422,1518,1349,1349
1521,1514,1445,1430
1569,1480,1437,1481
1439,1498,1441,1494
1469,1355,1453,1402
1597,1452,1490,1477
1485,1526,1417,1504
1615,1494,1374,1422
1445,1609,1370,1445
1610,1497,1572,1534
1569,1561,1430,1483
1659,1440,1377,1538
1632,1469,1460,1528
1600,1513,1381,1468
1618,1463,1492,1375
1483,1404,1439,1319
1611,1494,1504,1388
1642,1344,1419,1521
1512,1445,1415,1428
1494,1457,1469,1533
1464,1492,1506,1477
1463,1523,1442,1440
1509,1503,1481,1430
1569,1402,1478,1370
1494,1496,1431,1506
1483,1503,1428,1424
1557,1541,1443,1552
1335,1503,1474,1597
1469,1386,1470,1462
1331,1357,1477,1473
1406,1387,1527,1422
1416,1611,1470,1492
1419,1569,1383,1422
1456,1473,1473,1483
1379,1513,1483,1474
1480,1490,1478,1535
1424,1600,1457,1471
1476,1574,1456,1540
1480,1569,1535,1521
1488,1595,1480,1342
1422,1582,1506,1391
1477,1600,1444,1338
1453,1561,1474,1462
1494,1590,1445,1419
1463,1595,1496,1483
1469,1613,1518,1488
1393,1557,1483,1415
1529,1478,1478,1453
1460,1383,1477,1519
1416,1361,1478,1494
1430,1357,1397,1490
1412,1441,1506,1456
1454,1457,1504,1523
1445,1488,1516,1430
1440,1406,1460,1494
1526,1385,1494,1492
1439,1406,1490,1523
1481,1455,1406,1477
1462,1379,1457,1492
1485,1526,1457,1597
1514,1469,1466,1502
1565,1444,1473,1611
1485,1385,1569,1621
1582,1528,1572,1595
1440,1494,1503,1519
1454,1891,1548,1519
1416,2024,1629,1533
1531,2376,1555,1529
1443,2651,1543,1474
1538,2696,1545,1534
1503,2516,1553,1466
1543,1963,1477,1424
1483,1478,1432,1406
1519,1183,1565,1404
1504,922,1548,1380
1432,1007,1466,1379
1516,1109,1518,1419
1497,1107,1393,1432
1498,1153,1409,1478
1488,1236,1396,1349
1338,1061,1440,1415
1470,1251,1488,1445
1422,1163,1400,1379
1382,1236,1412,1509
1557,1365,1300,1456
1508,1323,1401,1564
1508,1325,1439,1716
1514,1411,1508,1978
1464,1355,1445,2309
1396,1508,1453,2445
1428,1455,1429,2665
1503,1365,1513,2478
1572,1276,1673,2122
1514,1355,1819,1632
1516,1300,2147,1166
1607,1473,2367,1025
1548,1534,2507,1021
1595,1462,2453,1115
1588,1467,2179,1294
1583,1514,1773,1216
1646,1422,1236,1141
1531,1533,1089,1126
1582,1502,999,1178
1531,1469,999,1213
1480,1624,1109,1302
1428,1543,1216,1302
1455,1669,1153,1339
1413,1735,1160,1266
1369,1538,1236,1352
1445,1656,1178,1370
1400,1474,1348,1302
1385,1443,1299,1369
1534,1477,1343,1411
1514,1557,1331,1385
1439,1557,1315,1391
1565,1583,1335,1413
1365,1557,1411,1509
1415,1604,1362,1439
1393,1608,1419,1445
1396,1504,1444,1428
1529,1597,1490,1565
1535,1561,1473,1544
1664,1566,1411,1514
2037,1590,1496,1466
2397,1565,1437,1485
2458,1578,1393,1496
2742,1454,1413,1529
2372,1441,1422,1540
2066,1411,1490,1485
1474,1338,1548,1469
1202,1362,1566,1569
1073,1428,1516,1588
1109,1403,1422,1534
1116,1401,1485,1659
1081,1468,1580,1600
1137,1428,1650,1607
1156,1521,1607,1569
1248,1340,1583,1636
1303,1411,1604,1567
1228,1431,1582,1567
1261,1377,1624,1579
1377,1541,1591,1595
1201,1379,1607,1547
1401,1483,1590,1458
1336,1498,1480,1526
1339,1566,1543,1585
1365,1417,1560,1490
1379,1406,1543,1462
1377,1344,1636,1456
1375,1426,1590,1393
1401,1453,1445,1344
1411,1536,1503,1342
1484,1560,1490,1306
1483,1544,1492,1433
1374,1456,1460,1430
1409,1535,1566,1468
1413,1468,1401,1396
1555,1468,1352,1404
1498,1473,1385,1341
1508,1437,1437,1430
1548,1506,1382,1427
1503,1411,1417,1424
1538,1477,1440,1432
1557,1416,1457,1377
1607,1545,1370,1365
1545,1569,1388,1483
1607,1424,1416,1343
1513,1492,1460,1560
1468,1349,1323,1369
1538,1330,1390,1441
1529,1490,1508,1440
1607,1526,1396,1432
1632,1503,1370,1488
1534,1406,1514,1480
1574,1379,1391,1514
1498,1355,1424,1460
1490,1453,1468,1516
1533,1535,1437,1443
1590,1641,1445,1445
1529,1521,1413,1374
1458,1686,1457,1444
1452,1552,1470,1478
1480,1488,1490,1538
1445,1492,1485,1545
1516,1399,1535,1497
1471,1560,1478,1386
1336,1377,1444,1355
1456,1478,1471,1431
1431,1513,1456,1473
1353,1540,1416,1463
1406,1460,1401,1487
1357,1548,1473,1462
1416,1469,1466,1494
1424,1393,1411,1457
1437,1561,1474,1484
1443,1488,1498,1516
1453,1634,1488,1452
1442,1689,1458,1498
1516,1624,1503,1533
1428,1531,1469,1407
1494,1557,1488,1473
1456,1533,1488,1430
1513,1545,1445,1468
1442,1526,1494,1488
1400,1400,1473,1406
1460,1419,1494,1470
1478,1431,1569,1469
1454,1357,1529,1419
1428,1330,1460,1433
1401,1443,1462,1445
1473,1456,1440,1531
1445,1455,1419,1494
1483,1404,1593,1534
1584,1311,1460,1585
1534,1406,1457,1548
1458,1416,1428,1624
1490,1393,1469,1597
1548,1477,1463,1490
1469,1419,1468,1533
1453,1443,1504,1527
1508,1595,1512,1574
1468,1770,1393,1547
1504,2116,1452,1497
1526,2391,1483,1529
1490,2599,1569,1514
1470,2668,1569,1426
1428,2482,1527,1463
1490,1978,1516,1492
1466,1591,1455,1379
1430,1148,1513,1401
1490,934,1609,1419
1504,962,1597,1401
1445,1100,1583,1406
1349,1122,1597,1441
1521,1133,1547,1370
1453,1140,1580,1351
1529,1091,1464,1430
1508,1274,1477,1538
1544,1234,1404,1437
1468,1325,1466,1508
1366,1331,1419,1580
1545,1278,1380,1700
1531,1379,1379,1925
1458,1260,1328,2235
1456,1328,1445,2430
1552,1309,1430,2615
1544,1361,1386,2484
1483,1340,1503,2026
1536,1441,1463,1588
1565,1483,1466,1131
1557,1406,1415,910
1503,1424,1317,935
1757,1424,1396,1101
1630,1415,1473,1095
1555,1473,1607,1178
1396,1466,1888,1225
1466,1565,2128,1201
1428,1508,2333,1216
1503,1433,2591,1275
1494,1430,2604,1303
1478,1456,2296,1254
1445,1578,1752,1315
1419,1584,1362,1317
1370,1643,1101,1351
1393,1555,980,1344
1419,1557,1070,1361
1540,1531,1173,1437
1502,1557,1188,1490
1388,1609,1248,1469
1370,1580,1236,1440
1353,1538,1185,1490
1391,1591,1273,1393
1404,1527,1213,1379
1379,1503,1285,1411
1569,1503,1309,1469
1775,1516,1209,1422
2000,1569,1335,1477
2427,1528,1323,1480
2482,1544,1406,1490
2576,1387,1338,1538
2319,1488,1415,1538
1953,1547,1412,1544
1455,1460,1365,1529
1140,1453,1413,1513
1099,1458,1430,1579
974,1503,1422,1535
1166,1428,1415,1613
1095,1393,1543,1616
1207,1379,1512,1683
1183,1453,1504,1582
1167,1343,1474,1619
1251,1432,1432,1629
1224,1456,1466,1632
1255,1391,1456,1572
1268,1377,1543,1557
1380,1400,1595,1607
1331,1406,1538,1561
1225,1300,1575,1535
1388,1305,1557,1548
1469,1454,1508,1543
1476,1508,1584,1440
1422,1433,1588,1478
1439,1504,1647,1422
1483,1430,1682,1490
1365,1377,1600,1428
1357,1462,1623,1469
1498,1379,1531,1463
1409,1498,1462,1454
1463,1480,1557,1380
1485,1422,1557,1466
1504,1483,1527,1440
1480,1429,1490,1452
1404,1375,1458,1469
1544,1498,1514,1379
1419,1540,1508,1287
1521,1443,1469,1317
1567,1464,1477,1385
1560,1380,1406,1543
1580,1404,1490,1428
1628,1416,1433,1415
1529,1462,1469,1439
1578,1572,1393,1402
1526,1478,1412,1443
1629,1343,1498,1437
1583,1607,1361,1444
1557,1561,1317,1388
1628,1502,1404,1462
1584,1628,1440,1469
1504,1385,1413,1477
1557,1508,1413,1422
1428,1427,1362,1483
1624,1471,1367,1468
1531,1490,1396,1498
1518,1455,1365,1417
1416,1404,1502,1534
1468,1470,1424,1490
1453,1456,1463,1492
1514,1529,1467,1519
1440,1578,1422,1494
1330,1445,1403,1453
1406,1513,1526,1462
1441,1428,1527,1519
1535,1422,1533,1480
1406,1480,1503,1413
1460,1545,1406,1439
1466,1569,1478,1480
1392,1604,1415,1504
1357,1406,1485,1460
1453,1531,1583,1533
1409,1506,1443,1412
1353,1595,1445,1434
1303,1490,1474,1437
1481,1555,1428,1506
1417,1577,1514,1518
1393,1545,1483,1404
1483,1496,1533,1485
1514,1538,1441,1409
1600,1374,1478,1396
1441,1409,1365,1454
1440,1401,1477,1535
1514,1426,1490,1509
1573,1404,1480,1531
1470,1396,1444,1561
1545,1473,1508,1583
1490,1462,1406,1534
1501,1513,1523,1609
1470,1512,1483,1671
1488,1411,1431,1607
1473,1395,1445,1580
1430,1357,1473,1597
1619,1462,1478,1523
1460,1428,1452,1443
1478,1516,1416,1396
1460,1723,1494,1443
1508,1927,1485,1430
1401,2218,1424,1462
1516,2430,1463,1383
1549,2585,1546,1375
1437,2461,1492,1437
1379,2062,1480,1426
1470,1552,1494,1456
1548,1088,1583,1531
1463,931,1412,1440
1445,867,1499,1445
1531,1198,1477,1483
1504,1225,1498,1441
1508,1268,1391,1467
1488,1260,1490,1466
1516,1299,1506,1528
1426,1281,1516,1531
1483,1260,1453,1635
1432,1217,1604,1897
1463,1246,1605,2176
1353,1366,1641,2345
1478,1309,1630,2479
1521,1382,1580,2311
1543,1303,1566,1966
1573,1335,1403,1527
1648,1374,1609,1196
1484,1437,1470,1122
1519,1441,1468,1047
1494,1460,1480,1117
1646,1469,1404,1153
1557,1502,1379,1231
1616,1457,1343,1207
1555,1430,1445,1276
1574,1477,1478,1268
1455,1386,1396,1294
1494,1488,1445,1321
1419,1441,1453,1383
1483,1531,1403,1323
1456,1477,1353,1341
1462,1580,1416,1317
1411,1549,1485,1388
1355,1538,1396,1328
1361,1513,1557,1353
1432,1513,1533,1431
1580,1622,1600,1424
1470,1607,1884,1424
1536,1566,2214,1442
1393,1488,2469,1463
1431,1611,2665,1432
1353,1462,2635,1432
1385,1641,2298,1456
1411,1616,1748,1454
1416,1621,1170,1445
1523,1577,968,1494
1772,1557,947,1533
1955,1529,1173,1533
2302,1567,1088,1569
2475,1441,1078,1543
2610,1504,1217,1573
2430,1503,1185,1557
2098,1402,1294,1513
1757,1473,1323,1521
1264,1439,1263,1531
1141,1395,1220,1508
1108,1419,1299,1611
1108,1330,1251,1642
1108,1312,1331,1561
1034,1309,1272,1559
1170,1494,1281,1695
1184,1419,1279,1526
1260,1419,1323,1611
1263,1456,1406,1580
1231,1400,1442,1595
1285,1445,1406,1577
1265,1383,1380,1523
1325,1355,1452,1533
1383,1351,1545,1445
1383,1349,1424,1444
1352,1316,1565,1445
1498,1388,1531,1514
1428,1437,1531,1428
1433,1413,1468,1445
1367,1474,1557,1441
1440,1494,1538,1445
1437,1485,1514,1474
1351,1474,1553,1383
1485,1457,1506,1458
1428,1432,1521,1355
1349,1411,1468,1430
1422,1379,1470,1367
1508,1430,1585,1413
1478,1508,1596,1391
1646,1481,1544,1353
1544,1391,1642,1531
1643,1508,1566,1433
1514,1555,1590,1441
1547,1483,1559,1426
1590,1569,1622,1381
1483,1393,1521,1441
1516,1373,1611,1428
1506,1514,1566,1478
1583,1572,1543,1393
1523,1544,1508,1439
1592,1387,1503,1428
1616,1341,1516,1442
1573,1402,1534,1443
1647,1424,1411,1428
1531,1528,1488,1521
1632,1494,1411,1503
1514,1457,1455,1538
1524,1415,1382,1468
1506,1488,1412,1480
1646,1473,1374,1483
1496,1483,1370,1445
1478,1460,1440,1541
1504,1439,1437,1490
1352,1406,1393,1441
1456,1380,1443,1411
1383,1490,1382,1474
1411,1504,1374,1441
1428,1534,1411,1445
1344,1632,1415,1441
1383,1583,1498,1481
1441,1504,1443,1490
1357,1503,1441,1469
1433,1547,1433,1466
1455,1518,1486,1437
1361,1413,1477,1473
1483,1473,1488,1531
1424,1455,1498,1531
1466,1569,1335,1504
1316,1444,1411,1503
1406,1367,1407,1533
1411,1396,1456,1535
1494,1406,1504,1518
1379,1483,1483,1533
1488,1400,1498,1503
1514,1486,1561,1518
1521,1411,1469,1538
1483,1445,1496,1506
1441,1326,1483,1580
1365,1467,1529,1544
1406,1366,1453,1488
1591,1432,1430,1535
1572,1474,1419,1462
1526,1433,1477,1477
1460,1484,1526,1434
1503,1498,1621,1460
1494,1748,1462,1424
1519,1852,1497,1407
1445,2303,1504,1437
1478,2519,1462,1492
1490,2707,1457,1400
1445,2386,1473,1474
1478,2039,1486,1591
1526,1477,1413,1543
1361,1217,1388,1407
1538,972,1379,1467
1488,996,1416,1365
1514,1099,1478,1433
1529,1133,1486,1411
1430,1204,1503,1516
1531,1246,1506,1560
1391,1201,1441,1775
1527,1222,1445,2076
1534,1289,1519,2351
1490,1286,1485,2451
1538,1312,1457,2489
1502,1312,1529,2228
1502,1289,1509,1803
1336,1316,1580,1312
1336,1326,1485,1114
1526,1374,1521,1027
1483,1428,1477,1129
1538,1294,1413,1160
1463,1426,1427,1248
1574,1377,1452,1236
1468,1427,1433,1166
1432,1417,1474,1216
1533,1401,1531,1272
1506,1424,1588,1278
1496,1412,1545,1246
1557,1387,1580,1276
1529,1526,1595,1323
1579,1460,1569,1373
1497,1535,1562,1379
1557,1513,1637,1401
1521,1600,1582,1338
1578,1623,1572,1370
1518,1516,1569,1437
1593,1521,1596,1473
1526,1484,1473,1456
1506,1483,1469,1467
1478,1474,1424,1565
1445,1635,1424,1503
1404,1577,1338,1468
1430,1560,1402,1441
1538,1634,1445,1415
1506,1531,1402,1441
1406,1673,1402,1428
1411,1561,1401,1577
1469,1637,1428,1508
1531,1560,1422,1490
1377,1572,1483,1518
1580,1445,1440,1528
1381,1466,1365,1628
1351,1473,1402,1456
1369,1477,1494,1585
1317,1577,1579,1531
1328,1419,1770,1591
1477,1430,2000,1595
1527,1383,2221,1658
1725,1391,2410,1557
1886,1490,2591,1634
2284,1343,2421,1611
2596,1432,2035,1623
2741,1363,1569,1533
2567,1402,1175,1569
2150,1388,948,1607
1686,1412,1018,1552
1211,1396,1118,1590
1131,1325,1082,1508
1097,1424,1129,1458
1139,1533,1189,1483
1108,1385,1166,1437
1039,1462,1310,1397
1162,1483,1335,1440
1260,1413,1206,1406
1263,1406,1415,1379
1278,1387,1395,1455
1228,1413,1369,1381
1213,1377,1401,1466
1172,1455,1341,1374
1305,1428,1323,1353
1319,1469,1300,1393
1335,1412,1299,1442
1325,1469,1365,1407
1294,1457,1406,1470
1323,1485,1433,1407
1396,1432,1393,1474
1473,1474,1477,1483
1415,1456,1428,1444
1440,1494,1462,1411
1377,1402,1572,1412
1476,1607,1531,1462
1393,1572,1508,1374
1432,1546,1494,1387
1455,1478,1518,1477
1544,1433,1428,1458
1445,1352,1506,1463
1521,1468,1557,1506
1564,1483,1619,1490
1521,1497,1538,1445
1557,1528,1546,1445
1521,1490,1615,1526
1492,1498,1504,1514
1534,1379,1627,1445
1513,1415,1681,1497
1609,1406,1732,1431
1585,1516,1628,1469
1597,1615,1573,1466
1580,1469,1659,1460
1572,1456,1480,1496
1516,1483,1473,1367
1555,1374,1509,1496
1497,1463,1597,1437
1628,1466,1514,1462
1534,1490,1573,1439
1596,1521,1529,1519
1548,1463,1502,1477
1426,1611,1355,1455
1411,1584,1416,1478
1445,1534,1303,1483
1456,1590,1352,1457
1473,1564,1439,1496
1375,1477,1502,1566
1456,1547,1485,1490
1485,1490,1469,1524
1338,1547,1328,1473
1424,1531,1383,1508
1406,1478,1413,1543
1445,1486,1381,1562
1477,1496,1453,1584
1452,1443,1352,1547
1441,1468,1381,1521
1468,1419,1341,1478
1557,1381,1400,1580
1437,1370,1457,1516
1370,1477,1406,1526
1463,1401,1498,1534
1361,1424,1400,1534
1404,1417,1445,1470
1365,1381,1456,1383
1562,1441,1519,1504
1430,1428,1456,1411
1445,1370,1460,1445
1445,1523,1462,1439
1535,1415,1498,1392
1569,1568,1445,1385
1473,1704,1509,1453
1443,1835,1552,1470
1490,2308,1409,1494
1531,2524,1349,1424
1477,2671,1323,1455
1540,2544,1415,1467
1453,2238,1474,1439
1361,1615,1564,1445
1452,1276,1480,1440
1504,939,1471,1564
1445,981,1490,1647
1441,1021,1343,1874
1383,1112,1474,2176
1462,1173,1494,2421
1411,1228,1440,2659
1508,1250,1504,2665
1478,1236,1521,2286
1502,1273,1409,1870
1535,1162,1433,1299
1492,1209,1573,1173
1455,1234,1424,967
1508,1335,1533,1089
1457,1341,1492,1063
1473,1419,1457,1201
1540,1433,1422,1149
1406,1236,1445,1241
1499,1335,1444,1290
1413,1428,1444,1279
1428,1353,1379,1254
1424,1560,1377,1253
1548,1509,1427,1300
1437,1437,1445,1285
1496,1267,1527,1268
1457,1352,1545,1352
1607,1473,1483,1391
1538,1523,1470,1473
1544,1595,1523,1343
1437,1536,1440,1365
1422,1492,1455,1386
1383,1534,1357,1365
1383,1369,1417,1518
1503,1466,1494,1508
1497,1580,1409,1468
1462,1521,1440,1508
1462,1597,1453,1419
1469,1607,1555,1445
1388,1611,1544,1462
1452,1485,1580,1523
1445,1561,1548,1518
1494,1514,1508,1492
1557,1590,1559,1508
1529,1591,1468,1566
1574,1548,1431,1509
1518,1592,1396,1528
1591,1496,1453,1548
1473,1543,1557,1613
1600,1480,1553,1609
1557,1462,1456,1535
1492,1518,1426,1583
1583,1483,1353,1569
1547,1483,1383,1496
1416,1492,1352,1569
1485,1458,1521,1557
1404,1428,1474,1492
1321,1452,1419,1538
1428,1361,1426,1565
1415,1393,1440,1628
1453,1439,1387,1621
1433,1440,1386,1548
1533,1353,1407,1561
1373,1452,1415,1533
1441,1404,1490,1433
1417,1357,1609,1512
1385,1473,1789,1419
1419,1516,2113,1393
1413,1388,2330,1419
1390,1374,2691,1429
1526,1323,2489,1483
1565,1352,2085,1363
1778,1416,1538,1388
2085,1419,1173,1416
2362,1498,1001,1382
2571,1674,1034,1370
2562,1445,1157,1365
2314,1513,1162,1406
1939,1467,1175,1516
1343,1339,1196,1424
1108,1456,1228,1561
1027,1480,1239,1424
1104,1552,1273,1419
1213,1470,1281,1396
1188,1396,1306,1445
1188,1439,1318,1411
1263,1369,1312,1406
1176,1460,1339,1555
1338,1492,1417,1496
1160,1485,1374,1455
1237,1456,1404,1468
1278,1411,1453,1402
1379,1473,1393,1393
1422,1471,1404,1445
1325,1518,1377,1513
1352,1567,1413,1538
1374,1600,1413,1473
1321,1404,1407,1480
1362,1526,1406,1557
1424,1478,1483,1492
1470,1467,1490,1432
1388,1431,1566,1478
1494,1452,1569,1416
1494,1462,1470,1432
1417,1432,1531,1488
1477,1469,1483,1492
1488,1508,1462,1478
1419,1434,1469,1445
1469,1518,1455,1536
1566,1439,1566,1469
1538,1379,1590,1385
1463,1529,1666,1422
1526,1468,1565,1508
1494,1415,1566,1462
1490,1481,1483,1552
1578,1533,1440,1441
1744,1523,1583,1488
1596,1538,1674,1490
1527,1409,1574,1572
1490,1453,1669,1598
1534,1490,1773,1545
1583,1478,1426,1521
1643,1531,1470,1445
1535,1504,1407,1582
1604,1545,1555,1555
1512,1593,1607,1526
1569,1529,1560,1503
1506,1528,1674,1547
1544,1569,1377,1529
1557,1580,1424,1569
1454,1453,1366,1578
1455,1595,1456,1502
1427,1452,1437,1426
1474,1476,1456,1534
1428,1533,1468,1504
1445,1457,1416,1437
1402,1379,1377,1460
1492,1388,1377,1413
1386,1381,1365,1441
1490,1366,1365,1367
1328,1316,1432,1456
1509,1413,1483,1439
1488,1419,1483,1370
1355,1411,1526,1440
1513,1455,1426,1470
1492,1441,1441,1543
1317,1439,1387,1402
1396,1462,1415,1456
1426,1456,1406,1455
1445,1747,1488,1416
1393,1951,1428,1641
1455,2337,1416,1698
1429,2443,1468,1997
1407,2699,1504,2280
1478,2593,1469,2514
1442,2171,1566,2722
1604,1748,1506,2554
1331,1268,1562,2055
1504,986,1452,1718
1452,1007,1523,1204
1536,1010,1430,999
1503,1112,1506,989
1470,1107,1453,1078
1477,1173,1568,1134
1385,1183,1526,1162
1474,1178,1444,1209
1582,1260,1457,1214
1544,1234,1415,1204
1547,1300,1439,1273
1467,1279,1430,1302
1502,1311,1579,1305
1498,1300,1497,1231
1456,1336,1469,1183
1508,1365,1445,1275
1455,1355,1462,1395
1365,1380,1393,1403
1340,1359,1452,1404
1485,1377,1635,1433
1521,1321,1555,1344
1463,1380,1543,1316
1582,1343,1483,1326
1508,1413,1413,1440
1534,1433,1428,1406
1527,1469,1462,1413
1480,1453,1555,1441
1611,1462,1544,1453
1502,1561,1506,1441
1504,1629,1547,1504
1508,1529,1445,1485
1404,1615,1504,1463
1383,1474,1419,1483
1416,1634,1439,1565
1462,1607,1413,1528
1441,1595,1434,1591
1456,1648,1583,1560
1509,1565,1538,1569
1534,1592,1611,1488
1494,1419,1509,1569
1496,1492,1442,1619
1445,1455,1406,1609
1469,1600,1497,1622
1403,1521,1473,1583
1597,1561,1566,1519
1596,1512,1540,1583
1462,1624,1560,1513
1611,1545,1596,1607
1608,1578,1591,1567
1455,1615,1632,1506
1555,1483,1529,1552
1538,1494,1534,1538
1646,1457,1518,1508
1583,1443,1538,1490
1607,1452,1506,1483
1402,1385,1583,1488
1469,1407,1427,1478
1381,1432,1455,1488
1476,1430,1504,1478
1533,1343,1416,1353
1490,1406,1569,1413
1469,1299,1428,1428
1466,1404,1445,1433
1473,1381,1404,1385
1387,1428,1401,1365
1411,1377,1481,1391
1411,1456,1483,1379
1406,1357,1526,1352
1401,1494,1538,1444
1453,1506,1492,1488
1468,1497,1413,1462
1503,1478,1377,1407
1428,1416,1527,1468
1503,1538,1595,1413
1455,1538,1748,1413
1545,1412,1931,1437
1785,1547,2372,1516
2110,1529,2591,1494
2212,1428,2753,1514
2521,1377,2475,1504
2442,1362,1936,1471
2115,1428,1432,1388
1713,1445,1157,1496
1321,1469,998,1453
1153,1375,1058,1490
960,1457,1173,1535
1064,1464,1153,1468
1234,1503,1262,1463
1134,1526,1228,1437
1267,1477,1188,1426
1179,1478,1222,1574
1338,1480,1209,1494
1234,1481,1226,1428
1290,1467,1315,1409
1349,1437,1381,1424
1312,1621,1387,1429
1263,1529,1306,1490
1338,1543,1339,1531
1406,1387,1388,1503
1351,1385,1424,1460
1391,1492,1521,1437
1411,1379,1374,1545
1439,1490,1433,1429
1415,1490,1385,1483
1383,1443,1466,1492
1428,1419,1518,1519
1365,1528,1462,1454
1393,1415,1404,1492
1506,1393,1411,1514
1573,1365,1335,1467
1469,1498,1437,1519
1528,1441,1512,1533
1534,1540,1624,1494
1538,1477,1611,1417
1498,1533,1513,1419
1569,1513,1555,1518
1508,1528,1533,1430
1565,1534,1643,1561
1422,1413,1683,1531
1580,1481,1535,1533
1555,1494,1565,1561
1597,1538,1483,1585
1561,1528,1582,1592
1634,1518,1547,1490
1566,1496,1713,1580
1559,1406,1727,1518
1578,1526,1671,1552
1534,1588,1588,1490
1531,1504,1555,1478
1664,1529,1535,1455
1605,1557,1620,1452
1557,1607,1673,1383
1474,1568,1582,1440
1428,1557,1621,1430
1521,1547,1548,1411
1385,1406,1422,1366
1599,1409,1664,1377
1529,1437,1609,1417
1456,1411,1526,1478
1331,1429,1697,1460
1401,1255,1669,1483
1466,1325,1557,1433
1406,1377,1440,1432
1393,1411,1379,1387
1424,1424,1411,1509
1396,1440,1595,1588
1396,1416,1667,1772
1439,1406,1773,2100
1289,1457,1678,2375
1453,1559,1628,2477
1381,1791,1494,2582
1441,1946,1635,2275
1527,2229,1664,1819
1338,2484,1597,1300
1411,2647,1569,1081
1374,2469,1547,935
1490,2118,1544,1047
1513,1624,1383,1199
1471,1223,1427,1260
1547,1035,1424,1299
1426,976,1476,1239
1478,1035,1484,1331
1471,1081,1488,1211
1533,1173,1352,1262
1473,1213,,1297
1490,1260,,1335
1411,1290,,1300
1473,1260,,1317
1467,1229,,1309
1494,1325,,1344
1483,1370,,1369
1437,1272,,1422
1331,1311,,1386
1494,1388,,1391
1502,1343,,1365
1569,1409,,1370
1634,1366,,1416
1388,1411,,1474
1498,1424,,1516
1477,1397,,1529
1492,1413,,1526
1513,1456,,1502
1462,1379,,1516
1452,1531,,1590
1469,1409,,1548
1419,1494,,1569
1428,1490,,1540
1531,1588,,1555
1419,1502,,1526
1422,1582,,1415
1462,1636,,1535
1595,1521,,1455
1444,1574,,1555
1529,1529,,1607
1494,1471,,1673
1504,1555,,1607
1531,1566,,1698
1535,1578,,1573
1597,1648,,1547
1440,1595,,1519
1439,1560,,1567
1477,1526,,1681
1463,1573,,1609
1478,1628,,1565
1441,1590,,1572
1478,1667,,1523
1467,1521,,1433
1477,1538,,1411
1488,1527,,1393
1547,1561,,1441
1518,1457,,1415
1535,1468,,1430
1684,1404,,1316
1659,1380,,1335
1598,1437,,1365
1569,1468,,1428
1557,1523,,1393
1572,1396,,1401
1544,1428,,1406
1535,1308,,1424
1552,1339,,1445
1463,1413,,1419
1480,1379,,1494
1456,1428,,1395
1365,1456,,1400
1411,1386,,1428
1361,1406,,1430
1531,1437,,1437
1445,1367,,1483
1462,1457,,1401
1469,1467,,1468
1485,1566,,1442
1443,1516,,1496
1490,1490,,1513
1441,1377,,1478
1439,1365,,1511
1395,1419,,1544
1502,1528,,1504
1548,1504,,1484
1757,1541,,1441
2050,1521,,1474
2326,1590,,1506
2529,1474,,1406
2638,1401,,1538
2484,1538,,1516
2126,1521,,1474
1521,1441,,1473
1201,1434,,1473
1073,1407,,1445
1064,1443,,1483
1074,1523,,1463
1186,1464,,1478
1173,1565,,1452
1201,1457,,1488
1286,1453,,1484
1297,1366,,1509
1266,1413,,1478
1302,1502,,1454
1379,1514,,1490
1393,1490,,1402
1263,1413,,1452
1289,1488,,1533
1338,1527,,1432
1426,1543,,1424
1415,1483,,1466
1385,1445,,1504
1426,1468,,1470
1419,1468,,1483
1428,1474,,1477
1473,1355,,1572
1529,1381,,1540
1406,1445,,1580
1521,1437,,1494
1516,1567,,1503
1496,1584,,1462
1473,1572,,1527
1462,1577,,1503
1565,1492,,1534
1504,1506,,1513
1521,1373,,1624
1595,1444,,1483
1488,1313,,1580
1622,1485,,1518
1591,1462,,1579
1681,1531,,1441
1555,1508,,1460
1513,1503,,1433
1595,1516,,1445
1508,1604,,1426
1636,1592,,1467
1504,1565,,1463
1590,1567,,1447
1529,1608,,1457
1580,1628,,1419
1582,1527,,1428
1659,1569,,1380
1460,1485,,1422
1529,1545,,1373
1593,1509,,1434
1428,1555,,1406
1437,1404,,1584
1460,1373,,1716
1484,1352,,1997
1445,1365,,2275
1471,1424,,2475
1506,1428,,2617
1443,1540,,2419
1416,1483,,2054
1393,1503,,1583
1386,1466,,1104
1369,1462,,1007
1335,1335,,1021
1516,1445,,1125
1445,1440,,1108
1467,1338,,1141
1428,1528,,1237
1422,1734,,1201
1401,2000,,1303
1452,2407,,1266
1494,2427,,1260
1468,2658,,1275
1433,2376,,1300
1543,2026,,1331
1552,1506,,1279
1485,1191,,1335
1496,962,,1466
1617,1018,,1483
1484,1151,,1468
1519,1192,,1470
1388,1157,,1470
1452,1229,,1381
1504,1209,,1390
1557,1317,,1441
1565,1209,,1503
1445,1367,,1401
1473,1302,,1469
1492,1370,,1483
1503,1440,,1471
1541,1392,,1478
1318,1369,,1483
1400,1328,,1496
1531,1485,,1516
1424,1524,,1543
1548,1369,,1519
1533,1365,,1588
1424,1369,,1572
1473,1434,,1608
1486,1485,,1671
1561,1513,,1569
1488,1540,,1555
1485,1496,,1560
1396,1443,,1547
1488,1462,,1623
1492,1524,,1555
1591,1426,,1555
1504,1547,,1508
1583,1519,,1526
1382,1535,,1490
1514,1664,,1513
1415,1638,,1572
1506,1568,,1502
1428,1467,,1506
1523,1538,,1538
1453,1646,,1445
1544,1681,,1541
1564,1548,,1462
1561,1622,,1406
1474,1611,,1362
1443,1666,,1424
1428,1600,,1442
1513,1552,,1504
1557,1567,,1374
1492,1583,,1468
1568,1467,,1338
1600,1535,,1383
1400,1588,,1460
1591,1480,,1404
1445,1531,,1331
1557,1428,,1406
1557,1404,,1463
1580,1404,,1483
1566,1454,,1469
1555,1419,,1456
1628,1417,,1466
1583,1265,,1531
1577,1417,,1403
1607,1445,,1494
1514,1379,,1424
1569,1535,,1401
1503,1445,,1469
1526,1462,,1531
1406,1379,,1506
1452,1413,,1481
1338,1276,,1535
1462,1483,,1456
1474,1504,,1458
1441,1369,,1504
1413,1506,,1435
1443,1396,,1531
1377,1428,,1411
1422,1483,,1516
1433,1480,,1503
1516,1591,,1531
1454,1455,,1485
1416,1455,,1445
1516,1393,,1457
1483,1476,,1478
1686,1361,,1485
2035,1412,,1588
2292,1521,,1483
2581,1509,,1441
2710,1527,,1443
2567,1585,,1395
2132,1557,,1401
1658,1474,,1468
1352,1521,,1457
1151,1595,,1577
1070,1457,,1569
1108,1635,,1503
1148,1406,,1579
1228,1470,,1485
1191,1430,,1468
1223,1437,,1516
1173,1531,,1424
1225,1502,,1379
1120,1514,,1488
1279,1440,,1393
1278,1544,,1457
1336,1393,,1498
1336,1422,,1514
1325,1508,,1569
1380,1533,,1548
1353,1548,,1516
1292,1607,,1555
1409,1540,,1521
1439,1456,,1467
1401,1369,,1504
1463,1422,,1471
1396,1455,,1440
1445,1454,,1565
1468,1496,,1569
1529,1477,,1637
1480,1424,,1485
1453,1439,,1548
1483,1521,,1565
1457,1533,,1535
1538,1470,,1462
1513,1432,,1590
1572,1464,,1569
1600,1578,,1521
1564,1628,,1564
1607,1481,,1591
1413,1548,,1447
1667,1513,,1460
1516,1490,,1444
1573,1466,,1469
1607,1413,,1430
1518,1424,,1474
1600,1485,,1513
1676,1514,,1432
1583,1569,,1390
1582,1578,,1416
1533,1616,,1361
1574,1636,,1393
1518,1643,,1379
1506,1526,,1413
1508,1485,,1474
1462,1483,,1557
1453,1545,,1713
1496,1632,,2004
1490,1597,,2339
1439,1649,,2559
1424,1467,,2739
1419,1474,,2501
1393,1391,,2078
1395,1416,,1595
1453,1419,,1276
1419,1485,,963
1419,1488,,1009
1483,1419,,1101
1417,1470,,1126
1396,1391,,1151
1417,1456,,1224
1431,1508,,1223
1527,1494,,1228
1506,1484,,1316
1508,1481,,1285
1541,1569,,1328
1473,1628,,1299
1393,1778,,1342
1452,1955,,1333
1409,2266,,1355
1533,2442,,1342
1406,2619,,1361
1445,2567,,1385
1424,2012,,1369
1519,1641,,1434
1445,1157,,1428
1531,998,,1400
1578,1013,,1387
1518,1112,,1441
1443,1151,,1502
1529,1178,,1469
1531,1201,,1521
1458,1213,,1569
1516,1251,,1548
1477,1303,,1512
1431,1306,,1536
1483,1289,,1477
1535,1387,,1483
1529,1306,,1526
1404,1306,,1535
1426,1352,,1540
1430,1361,,1561
1379,1426,,1562
1480,1401,,1506
1514,1463,,1595
1488,1403,,1513
1441,1441,,1644
1546,1470,,1725
1516,1595,,1615
1460,1569,,1572
1488,1466,,1560
1557,1375,,1585
1439,1417,,1506
1415,1455,,1578
1411,1470,,1561
1504,1555,,1514
1473,1548,,1544
1484,1560,,1557
1497,1476,,1470
1503,1496,,1424
1540,1477,,1416
1566,1568,,1415
1496,1580,,1323
1419,1549,,1400
1494,1604,,1365
1445,1604,,1477
1474,1623,,1380
1518,1700,,1428
1483,1624,,1426
1528,1578,,1406
1483,1529,,1275
1415,1534,,1511
1474,1443,,1439
1469,1577,,1494
1466,1718,,1519
1589,1557,,1456
1565,1547,,1455
1543,1531,,1444
1562,1521,,1473
1533,1443,,1531
1643,1462,,1483
1557,1417,,1513
1573,1379,,1526
1427,1450,,1396
1401,1480,,1400
1380,1382,,1338
1480,1406,,1385
1492,1415,,1396
1488,1428,,1351
1391,1413,,1432
1455,1362,,1480
1531,1379,,1523
1374,1432,,1615
1480,1444,,1649
1456,1547,,1588
1349,1477,,1385
1391,1456,,1454
1318,1371,,1483
1445,1474,,1379
1369,1424,,1302
1430,1462,,1268
1445,1487,,1306
1433,1454,,1514
1496,1424,,1580
1750,1518,,1590
2055,1456,,1506
2302,1458,,1470
2569,1477,,1595
2653,1557,,1498
2290,1452,,1443
1910,1535,,1516
1323,1411,,1485
1037,1557,,1569
920,1377,,1480
929,1470,,1427
1157,1462,,1397
1192,1512,,1311
1188,1531,,1504
1166,1518,,1430
1153,1417,,1646
1312,1411,,1545
1485,1392,,1621
1391,1488,,1521
1390,1458,,1455
1382,1453,,1385
1294,1518,,1426
1374,1468,,1426
1281,1516,,1503
1374,1362,,1613
1310,1416,,1560
1411,1498,,1443
1335,1526,,1590
1319,1492,,1502
1352,1456,,1477
1366,1540,,1536
1521,1494,,1506
1455,1466,,1582
1557,1401,,1424
1545,1518,,1370
1503,1560,,1383
1468,1406,,1440
1496,1417,,1592
1504,1382,,1642
1547,1406,,1659
1658,1453,,1607
1490,1573,,1506
1597,1555,,1396
1643,1419,,1580
1628,1456,,1582
1574,1377,,1627
1604,1416,,1716
1642,1402,,1544
1548,1547,,1470
1521,1579,,1402
1496,1545,,1374
1514,1453,,1387
1527,1485,,1362
1618,1444,,1432
1544,1443,,1309
1621,1467,,1379
1565,1622,,1388
1580,1411,,1636
1543,1393,,1509
1470,1492,,1496
1531,1431,,1452
1463,1432,,1284
1424,1473,,1335
1241,1543,,1490
1335,1526,,1617
1411,1579,,1922
1419,1591,,2172
1401,1538,,2560
1365,1452,,2775
1308,1413,,2613
1344,1538,,2384
1543,1508,,1853
1538,1695,,1305
1468,1619,,1018
1513,1574,,923
1445,1503,,1018
1529,1540,,1007
1445,1569,,1159
1379,1406,,1148
1396,1514,,1131
1336,1415,,1173
1379,1383,,1198
1466,1437,,1330
1528,1506,,1267
1526,1433,,1300
1509,1377,,1460
1569,1388,,1460
1445,1331,,1504
1377,1466,,1393
1388,1400,,1236
1403,1456,,1315
1396,1415,,1366
1419,1508,,1419
1494,1477,,1453
1463,1492,,1597
1437,1518,,1513
1569,1535,,1557
1559,1533,,1411
1529,1785,,1363
1483,1985,,1370
1521,2225,,1483
1548,2468,,1415
1406,2652,,1469
1504,2489,,1483
1393,2147,,1555
1492,1582,,1504
1406,1159,,1635
1543,944,,1649
1488,922,,1557
1362,1104,,1611
1427,1088,,1591
1432,1107,,1535
1494,1172,,1440
1445,1265,,1433
1468,1268,,1569
1443,1330,,1545
1462,1315,,1730
1578,1278,,1666
1411,1287,,1762
1473,1357,,1552
1521,1289,,1545
1506,1338,,1557
1478,1330,,1569
1480,1292,,1498
1445,1351,,1574
1480,1281,,1557
1642,1427,,1535
1620,1379,,1494
1477,1518,,1344
1535,1439,,1309
1455,1391,,1275
1430,1481,,1470
1535,1478,,1494
1596,1541,,1559
1557,1607,,1352
1483,1619,,1278
1588,1419,,1207
1560,1533,,1284
1543,1377,,1338
1636,1528,,1504
1474,1560,,1584
1604,1494,,1480
1513,1572,,1519
1534,1568,,1411
1506,1628,,1317
1460,1632,,1401
1370,1597,,1623
1470,1528,,1478
1460,1621,,1607
1406,1666,,1335
1373,1545,,1393
1442,1611,,1328
1498,1561,,1455
1552,1607,,1534
1445,1667,,1490
1508,1513,,1474
1454,1545,,1609
1383,1377,,1572
1284,1552,,1483
1369,1419,,1406
1374,1540,,1404
1557,1490,,1404
1763,1443,,1483
1994,1469,,1492
2348,1437,,1508
2427,1415,,1490
2516,1457,,1565
2178,1343,,1492
1943,1330,,1585
1326,1419,,1432
1148,1374,,1592
1014,1419,,1494
1034,1366,,1543
1059,1262,,1503
1211,1393,,1535
1265,1396,,1428
1317,1584,,1555
1215,1526,,1569
1207,1439,,1569
1222,1313,,1831
1211,1473,,1644
1234,1377,,1579
1387,1555,,1564
1439,1508,,1416
1406,1341,,1428
1325,1573,,1580
1335,1555,,1687
1369,1544,,1540
1471,1516,,1417
1393,1335,,1535
1490,1393,,1483
1403,1406,,1557
1341,1377,,1664
1439,1535,,1533
1492,1251,,1411
1413,1442,,1503
1567,1463,,1362
1504,1503,,1441
1621,,,1452
1591,,,1462
1621,,,1503
1533,,,1516
1456,,,1557
1528,,,1580
1529,,,1519
1582,,,1561
1672,,,1644
1619,,,1557
1632,,,1567
1619,,,1519
1526,,,1555
1561,,,1555
1428,,,1303
1485,,,1569
1595,,,1572
1733,,,1712
1708,,,1669
1557,,,1611
1538,,,1512
1485,,,1508
1428,,,1466
1533,,,1544
1592,,,1477
1569,,,1433
1427,,,1428
1313,,,1331
1352,,,1373
1417,,,1437
1593,,,1490
1427,,,1629
1437,,,1424
1428,,,1490
1323,,,1431
1513,,,1422
1428,,,1548
1349,,,1789
1445,,,1987
1355,,,2086
1453,,,2555
1483,,,2546
1498,,,2388
1492,,,1994
1444,,,1413
1379,,,1138
1513,,,1031
1463,,,1228
1540,,,1078
1569,,,1134
1464,,,1170
1540,,,1223
1445,,,1214
1565,,,1159
1387,,,1273
1573,,,1268
1483,,,1335
1445,,,1308
1428,,,1393
1440,,,1379
1474,,,1310
1521,,,1300
1498,,,1370
1538,,,1355
1415,,,1365
1377,,,1477
1492,,,1433
1462,,,1478
1543,,,1535
1490,,,1490
1544,,,1572
1597,,,1260
1455,,,1292
1508,,,1452
1345,,,1441
1473,,,1619
1454,,,1641
1490,,,1666
1430,,,1635
1508,,,1565
1573,,,1513
1521,,,1488
1519,,,1406
1445,,,1406
1469,,,1621
1441,,,1357
1445,,,1584
1445,,,1646
1490,,,1739
1559,,,1636
1540,,,1656
1518,,,1643
1519,,,1632
1492,,,1555
1470,,,1528
1508,,,1426
1559,,,1309
1534,,,1506
1561,,,1497
1548,,,1441
1572,,,1441
1529,,,1251
1577,,,1201
1545,,,1281
1648,,,1428
1526,,,1609
1622,,,1700
1555,,,1535
1700,,,1427
1538,,,1357
1574,,,1355
1306,,,1478
1365,,,1338
1428,,,1176
1619,,,1201
1484,,,1401
1616,,,1403
1413,,,1508
1514,,,1504
1367,,,1516
1361,,,1617
1419,,,1597
1497,,,1452
1485,,,1463
1462,,,1390
1439,,,1473
1441,,,1538
1413,,,1355
1656,,,1336
1674,,,1325
1975,,,1366
2372,,,1503
2532,,,1455
2677,,,1549
2482,,,1480
2115,,,1483
1621,,,1689
1220,,,1521
999,,,1406
1082,,,1387
1159,,,1383
1153,,,1369
1258,,,1455
1157,,,1411
1215,,,1524
1248,,,1544
1303,,,1514
1281,,,1518
1267,,,1467
1372,,,1369
1382,,,1490
1300,,,1566
1361,,,1513
1325,,,1468
1303,,,1400
1383,,,1478
1462,,,1464
1341,,,1415
1494,,,1343
1455,,,1390
1431,,,1518
1615,,,1497
1406,,,1700
1514,,,1619
1379,,,1409
1490,,,1478
1428,,,1444
1597,,,1503
1494,,,1557
1473,,,1578
1267,,,1548
1772,,,1484
,,,1393
,,,1359
,,,1460
,,,1466
,,,1548
,,,1519
,,,1590
,,,1564
,,,1483
,,,1568
,,,1528
,,,1555
,,,1721
,,,1611
,,,1609
,,,1656
,,,1739
,,,1670
,,,1647
,,,1441
,,,1445
,,,1466
,,,1600
,,,1666
,,,1516
,,,1365
,,,1273
,,,1469
,,,1506
,,,1733
,,,1566
,,,1431
,,,1323
,,,1267
,,,1365
,,,1518
,,,1575
,,,1646
,,,1702
,,,1847
,,,2045
,,,2386
,,,2677
,,,2822
,,,2624
,,,2117
,,,1686
,,,1268
,,,1034
,,,958
,,,1125
,,,1357
,,,1383
,,,1336
,,,1253
,,,1159
,,,1109
,,,1141
,,,1268
,,,1317
,,,1383
,,,1340
,,,1406
,,,1188
,,,1317
,,,1430
,,,1567
,,,1531
,,,1470
,,,1529
,,,1492
,,,1406
,,,1409
,,,1424
,,,1419
,,,1526
,,,1596
,,,1565
,,,1508
,,,1351
,,,1506
,,,1676
,,,1695
,,,1725
,,,1591
,,,1477
,,,1506
,,,1579
,,,1592
,,,1616
,,,1613
,,,1580
,,,1506
,,,1583
,,,1572
,,,1548
,,,1424
,,,1560
,,,1634
,,,1691
,,,1618
,,,1492
,,,1513
,,,1506
,,,1485
,,,1560
,,,1503
,,,1430
,,,1535
,,,1426
,,,1382
,,,1531
,,,1308
,,,1297
,,,1198
,,,1339
,,,1443
,,,1546
,,,1591
,,,1624
,,,1531
,,,1434
,,,1528
,,,1514
,,,1624
,,,1682
,,,1555
,,,1445
,,,1406
,,,1406
,,,1462
,,,1540
,,,1523
,,,1548
,,,1469
,,,1452
,,,1422
,,,1484
,,,1452
,,,1541
,,,1627
,,,1546
,,,1545
,,,1496
,,,1600
,,,1643
,,,1545
,,,1529
,,,1474
,,,1477
,,,1531
,,,1471
,,,1353
,,,1521
,,,1508
,,,1445
,,,1485
,,,1457
,,,1428
,,,1526
,,,1419
,,,1374
,,,1419
,,,1656
,,,1572
,,,1724
,,,1607
,,,1426
,,,1312
,,,1583
,,,1445
,,,1555
,,,1494
,,,1369
,,,1365
,,,1579
,,,1575
,,,1583
,,,1580
,,,1426
,,,1365
,,,1533
,,,1621
,,,1675
,,,1700
,,,1540
,,,1473
,,,1456
,,,1543
,,,1604
,,,1535
,,,1595
,,,1444
,,,1582
,,,1591
,,,1611
,,,1521
,,,1428
,,,1492
,,,1469
,,,1470
,,,1462
,,,1373
,,,1385
,,,1409
,,,1494
,,,1385
,,,1302
,,,1306
,,,1424
,,,1686
,,,1989
,,,2312
,,,2554
,,,2745
,,,2653
,,,2291
,,,1791
,,,1335
,,,1191
,,,1013
,,,1163
,,,1129
,,,1034
,,,1223
,,,1285
,,,1336
,,,1392
,,,1340
,,,1234
,,,1292
,,,1294
,,,1391
,,,1355
,,,1388
,,,1339
,,,1294
,,,1349
,,,1452
,,,1365
,,,1538
,,,1429
,,,1503
,,,1559
,,,1503
,,,1460
,,,1577
,,,1483
,,,1590
,,,1427
,,,1428
,,,1508
,,,1424
,,,1535
,,,1560
,,,1623
,,,1643
,,,1704
,,,1656
,,,1697
,,,1483
,,,1610
,,,1604
,,,1545
,,,1727
,,,1623
,,,1467
,,,1468
,,,1483
,,,1566
,,,1700
,,,1569
,,,1516
,,,1361
,,,1488
,,,1374
,,,1335
,,,1422
,,,1367
,,,1456
,,,1535
,,,1462
,,,1379
,,,1249
,,,1285
,,,1302
,,,1445
,,,1504
,,,1428
,,,1341
,,,1572
,,,1528
,,,1473
,,,1478
,,,1486
,,,1494
,,,1488
,,,1452
,,,1424
,,,1518
,,,1488
,,,1513
,,,1457
,,,1528
,,,1462
,,,1533
,,,1401
,,,1325
,,,1477
,,,1468
,,,1577
,,,1598
,,,1474
,,,1528
,,,1383
,,,1483
,,,1494
,,,1396
,,,1312
,,,1391
,,,1470
,,,1560
,,,1466
,,,1428
