=~=~=~=~=~=~=~=~=~=~=~= PuTTY log 2023.06.17 19:37:19 =~=~=~=~=~=~=~=~=~=~=~=
ESP-ROM:esp32s3-20210327
Build:Mar 27 2021
rst:0x1 (POWERON),boot:0x8 (SPI_FAST_FLASH_BOOT)
SPIWP:0xee
mode:DIO, clock div:1
load:0x3fce3808,len:0x43c
load:0x403c9700,len:0xbec
load:0x403cc700,len:0x2a3c
entry 0x403c98d8
1234.00
1365.00
1415.00
1404.00
1411.00
1437.00
1365.00
1553.00
1477.00
1583.00
1416.00
1387.00
1289.00
1351.00
1188.00
1339.00
1284.00
1268.00
1255.00
1254.00
1338.00
1188.00
1219.00
1316.00
1297.00
1312.00
1236.00
1249.00
1173.00
1237.00
1544.00
1746.00
1913.00
2242.00
2492.00
2398.00
2337.00
2005.00
1516.00
1316.00
1175.00
1263.00
1374.00
1411.00
1375.00
1290.00
1306.00
1233.00
1213.00
1222.00
1141.00
1215.00
1338.00
1299.00
1323.00
1353.00
1319.00
1323.00
1338.00
1392.00
1264.00
1357.00
1424.00
1416.00
1331.00
1524.00
1403.00
1413.00
1416.00
1463.00
1369.00
1437.00
1411.00
1506.00
1524.00
1583.00
1547.00
1557.00
1583.00
1607.00
1592.00
1665.00
1656.00
1686.00
1743.00
1543.00
1607.00
1624.00
1578.00
1620.00
1623.00
1569.00
1544.00
1514.00
1548.00
1529.00
1452.00
1379.00
1433.00
1457.00
1535.00
1464.00
1393.00
1268.00
1404.00
1513.00
1422.00
1365.00
1445.00
1521.00
1357.00
1393.00
1413.00
1458.00
1456.00
1392.00
1416.00
1445.00
1409.00
1490.00
1490.00
1456.00
1380.00
1528.00
1492.00
1521.00
1512.00
1335.00
1385.00
1404.00
1516.00
1415.00
1365.00
1424.00
1518.00
1393.00
1441.00
1463.00
1547.00
1457.00
1565.00
1596.00
1460.00
1416.00
1383.00
1391.00
1366.00
1460.00
1396.00
1365.00
1478.00
1478.00
1538.00
1427.00
1439.00
1462.00
1440.00
1338.00
1533.00
1503.00
1385.00
1344.00
1433.00
1469.00
1441.00
1597.00
1535.00
1516.00
1419.00
1477.00
1452.00
1508.00
1642.00
1634.00
1548.00
1411.00
1579.00
1504.00
1478.00
1485.00
1474.00
1455.00
1443.00
1528.00
1415.00
1315.00
1351.00
1531.00
1457.00
1415.00
1470.00
1374.00
1383.00
1424.00
1611.00
1686.00
1965.00
2302.00
2539.00
2736.00
2681.00
2388.00
1936.00
1473.00
1319.00
1351.00
1331.00
1432.00
1445.00
1460.00
1355.00
1535.00
1540.00
1456.00
1433.00
1355.00
1453.00
1369.00
1404.00
1437.00
1503.00
1547.00
1557.00
1508.00
1508.00
1478.00
1483.00
1521.00
1454.00
1496.00
1494.00
1508.00
1555.00
1596.00
1628.00
1480.00
1567.00
1718.00
1815.00
1611.00
1714.00
1722.00
1673.00
1711.00
1763.00
1681.00
1676.00
1730.00
1781.00
1607.00
1704.00
1762.00
1702.00
1761.00
1725.00
1824.00
1578.00
1600.00
1641.00
1686.00
1526.00
1538.00
1473.00
1593.00
1430.00
1577.00
1578.00
1514.00
1541.00
1469.00
1440.00
1464.00
1387.00
1543.00
1545.00
1516.00
1607.00
1508.00
1463.00
1456.00
1578.00
1467.00
1458.00
1455.00
1488.00
1477.00
1543.00
1533.00
1473.00
1533.00
1456.00
1592.00
1524.00
1555.00
1617.00
1628.00
1516.00
1468.00
1531.00
1480.00
1590.00
1566.00
1545.00
1488.00
1573.00
1543.00
1533.00
1526.00
1540.00
1592.00
1569.00
1473.00
1543.00
1634.00
1406.00
1555.00
1473.00
1499.00
1508.00
1619.00
1588.00
1533.00
1552.00
1521.00
1469.00
1480.00
1519.00
1546.00
1621.00
1658.00
1628.00
1566.00
1607.00
1719.00
1709.00
1585.00
1686.00
1704.00
1642.00
1621.00
1671.00
1658.00
1588.00
1508.00
1582.00
1590.00
1545.00
1590.00
1534.00
1534.00
1460.00
1593.00
1534.00
1441.00
1567.00
1611.00
1698.00
1649.00
1888.00
2054.00
2233.00
2538.00
2725.00
2554.00
2215.00
1987.00
1607.00
1331.00
1434.00
1579.00
1426.00
1529.00
1463.00
1483.00
1387.00
1578.00
1577.00
1535.00
1557.00
1469.00
1544.00
1531.00
1538.00
1567.00
1622.00
1519.00
1635.00
1595.00
1540.00
1595.00
1580.00
1591.00
1611.00
1568.00
1641.00
1674.00
1552.00
1538.00
1718.00
1803.00
1745.00
1816.00
1709.00
1674.00
1775.00
1803.00
1733.00
1769.00
1842.00
1862.00
1775.00
1838.00
1769.00
1818.00
1803.00
1750.00
1800.00
1733.00
1691.00
1757.00
1683.00
1718.00
1598.00
1812.00
1615.00
1607.00
1624.00
1621.00
1568.00
1528.00
1724.00
1455.00
1474.00
1572.00
1480.00
1508.00
1496.00
1659.00
1583.00
1464.00
1590.00
1504.00
1635.00
1529.00
1674.00
1583.00
1468.00
1490.00
1498.00
1552.00
1674.00
1628.00
1561.00
1516.00
1480.00
1609.00
1600.00
1478.00
1569.00
1580.00
1569.00
1658.00
1557.00
1628.00
1531.00
1548.00
1469.00
1463.00
1492.00
1569.00
1453.00
1584.00
1457.00
1604.00
1514.00
1496.00
1611.00
1488.00
1490.00
1533.00
1642.00
1503.00
1604.00
1565.00
1619.00
1498.00
1528.00
1476.00
1545.00
1529.00
1616.00
1670.00
1604.00
1634.00
1611.00
1578.00
1548.00
1647.00
1611.00
1591.00
1518.00
1567.00
1611.00
1456.00
1591.00
1514.00
1462.00
1494.00
1506.00
1509.00
1478.00
1390.00
1591.00
1462.00
1284.00
1387.00
1557.00
1649.00
1679.00
1870.00
2050.00
2337.00
2565.00
2665.00
2442.00
2085.00
1617.00
1397.00
1267.00
1267.00
1445.00
1411.00
1424.00
1494.00
1504.00
1339.00
1504.00
1403.00
1547.00
1557.00
1548.00
1521.00
1477.00
1445.00
1579.00
1504.00
1504.00
1468.00
1503.00
1519.00
1544.00
1609.00
1541.00
1609.00
1607.00
1592.00
1498.00
1494.00
1577.00
1674.00
1565.00
1686.00
1621.00
1648.00
1733.00
1813.00
1768.00
1695.00
1810.00
1700.00
1818.00
1682.00
1727.00
1714.00
1798.00
1718.00
1773.00
1637.00
1622.00
1569.00
1714.00
1658.00
1674.00
1734.00
1516.00
1469.00
1454.00
1569.00
1540.00
1430.00
1611.00
1468.00
1508.00
1516.00
1582.00
1508.00
1413.00
1343.00
1365.00
1466.00
1428.00
1595.00
1468.00
1443.00
1526.00
1506.00
1416.00
1377.00
1424.00
1474.00
1565.00
1503.00
1513.00
1513.00
1445.00
1432.00
1455.00
1406.00
1462.00
1609.00
1452.00
1526.00
1483.00
1545.00
1513.00
1580.00
1432.00
1466.00
1492.00
1437.00
1521.00
1462.00
1432.00
1480.00
1528.00
1445.00
1380.00
1452.00
1535.00
1455.00
1544.00
1577.00
1452.00
1366.00
1504.00
1377.00
1445.00
1474.00
1531.00
1437.00
1373.00
1592.00
1433.00
1518.00
1490.00
1535.00
1407.00
1557.00
1655.00
1607.00
1518.00
1565.00
1483.00
1528.00
1407.00
1624.00
1406.00
1455.00
1406.00
1428.00
1467.00
1471.00
1506.00
1503.00
1393.00
1387.00
1452.00
1361.00
1374.00
1417.00
1506.00
1415.00
1548.00
1734.00
2007.00
2308.00
2453.00
2665.00
2532.00
2200.00
1822.00
1469.00
1202.00
1365.00
1289.00
1513.00
1407.00
1468.00
1440.00
1381.00
1379.00
1339.00
1251.00
1300.00
1458.00
1452.00
1402.00
1407.00
1445.00
1432.00
1381.00
1455.00
1445.00
1514.00
1462.00
1524.00
1462.00
1306.00
1326.00
1457.00
1463.00
1439.00
1526.00
1565.00
1545.00
1565.00
1596.00
1533.00
1561.00
1582.00
1671.00
1636.00
1607.00
1686.00
1709.00
1642.00
1592.00
1693.00
1646.00
1636.00
1700.00
1627.00
1617.00
1514.00
1634.00
1580.00
1494.00
1494.00
1565.00
1428.00
1460.00
1462.00
1424.00
1328.00
1458.00
1374.00
1351.00
1428.00
1456.00
1483.00
1352.00
1390.00
1413.00
1381.00
1480.00
1412.00
1383.00
1336.00
1310.00
1352.00
1469.00
1379.00
1428.00
1325.00
1387.00
1355.00
1462.00
1460.00
1411.00
1413.00
1518.00
1355.00
1311.00
1386.00
1409.00
1379.00
1365.00
1492.00
1355.00
1343.00
1374.00
1352.00
1454.00
1393.00
1435.00
1443.00
1415.00
1379.00
1379.00
1352.00
1310.00
1432.00
1315.00
1188.00
1353.00
1392.00
1374.00
1369.00
1393.00
1330.00
1279.00
1470.00
1483.00
1468.00
1439.00
1437.00
1383.00
1261.00
1323.00
1411.00
1388.00
1400.00
1524.00
1385.00
1413.00
1365.00
1521.00
1473.00
1557.00
1424.00
1480.00
1473.00
1439.00
1514.00
1443.00
1388.00
1325.00
1365.00
1343.00
1262.00
1357.00
1352.00
1262.00
1351.00
1441.00
1285.00
1326.00
1325.00
1406.00
1514.00
1750.00
2161.00
2384.00
2599.00
2625.00
2419.00
1975.00
1497.00
1294.00
1151.00
1178.00
1426.00
1319.00
1349.00
1297.00
1409.00
1338.00
1303.00
1323.00
1431.00
1361.00
1260.00
1306.00
1431.00
1287.00
1362.00
1374.00
1361.00
1260.00
1463.00
1383.00
1292.00
1433.00
1426.00
1473.00
1466.00
1377.00
1503.00
1445.00
1460.00
1424.00
1565.00
1473.00
1543.00
1548.00
1502.00
1445.00
1709.00
1637.00
1604.00
1681.00
1632.00
1590.00
1636.00
1665.00
1711.00
1589.00
1641.00
1580.00
1528.00
1518.00
1474.00
1590.00
1504.00
1509.00
1498.00
1474.00
1396.00
1437.00
1506.00
1469.00
1289.00
1419.00
1402.00
1317.00
1344.00
1338.00
1386.00
1317.00
1433.00
1419.00
1406.00
1344.00
1393.00
1504.00
1352.00
1411.00
1343.00
1365.00
1365.00
1430.00
1415.00
1292.00
1302.00
1338.00
1326.00
1284.00
1369.00
1437.00
1325.00
1396.00
1406.00
1412.00
1433.00
1374.00
1490.00
1330.00
1400.00
1312.00
1374.00
1231.00
1411.00
1388.00
1323.00
1263.00
1369.00
1281.00
1401.00
1415.00
1531.00
1396.00
1373.00
1388.00
1396.00
1381.00
1400.00
1352.00
1355.00
1317.00
1357.00
1355.00
1377.00
1386.00
1543.00
1512.00
1442.00
1432.00
1406.00
1566.00
1424.00
1506.00
1441.00
1411.00
1457.00
1480.00
1411.00
1228.00
1325.00
1393.00
1477.00
1365.00
1365.00
1273.00
1267.00
1424.00
1431.00
1383.00
1306.00
1338.00
1432.00
1521.00
1729.00
1906.00
2188.00
2330.00
2544.00
2428.00
2039.00
1713.00
1385.00
1260.00
1153.00
1217.00
1306.00
1355.00
1265.00
1355.00
1338.00
1366.00
1370.00
1426.00
1309.00
1323.00
1393.00
1377.00
1338.00
1330.00
1366.00
1427.00
1351.00
1440.00
1328.00
1439.00
1325.00
1503.00
1480.00
1468.00
1488.00
1391.00
1393.00
1467.00
1401.00
1467.00
1470.00
1531.00
1578.00
1455.00
1546.00
1526.00
1669.00
1582.00
1534.00
1580.00
1624.00
1624.00
1628.00
1647.00
1557.00
1566.00
1618.00
1569.00
1609.00
1555.00
1534.00
1440.00
1470.00
1580.00
1506.00
1416.00
1430.00
1365.00
1306.00
1450.00
1440.00
1396.00
1316.00
1251.00
1428.00
1287.00
1366.00
1424.00
1393.00
1370.00
1325.00
1411.00
1311.00
1365.00
1428.00
1400.00
1365.00
1365.00
1456.00
1361.00
1338.00
1395.00
1406.00
1268.00
1339.00
1460.00
1590.00
1326.00
1386.00
1424.00
1338.00
1424.00
1393.00
1415.00
1488.00
1406.00
1431.00
1429.00
1278.00
1351.00
1377.00
1369.00
1316.00
1513.00
1396.00
1289.00
1357.00
1381.00
1234.00
1427.00
1341.00
1466.00
1424.00
1379.00
1379.00
1379.00
1370.00
1506.00
1462.00
1445.00
1456.00
1453.00
1431.00
1457.00
1385.00
1514.00
1483.00
1478.00
1496.00
1379.00
1387.00
1445.00
1377.00
1383.00
1260.00
1318.00
1424.00
1281.00
1331.00
1419.00
1339.00
1316.00
1370.00
1361.00
1466.00
1531.00
1860.00
2153.00
2372.00
2579.00
2504.00
2100.00
1730.00
1415.00
1220.00
1157.00
1305.00
1362.00
1312.00
1352.00
1355.00
1415.00
1254.00
1379.00
1403.00
1326.00
1387.00
1325.00
1457.00
1351.00
1428.00
1456.00
1406.00
1303.00
1401.00
1331.00
1432.00
1490.00
1395.00
1311.00
1430.00
1432.00
1527.00
1457.00
1432.00
1529.00
1533.00
1424.00
1514.00
1503.00
1543.00
1553.00
1584.00
1647.00
1569.00
1592.00
1676.00
1674.00
1671.00
1693.00
1676.00
1732.00
1604.00
1718.00
1611.00
1569.00
1641.00
1615.00
1478.00
1483.00
1441.00
1502.00
1453.00
1478.00
1462.00
1422.00
1319.00
1415.00
1335.00
1393.00
1428.00
1513.00
1453.00
1406.00
1351.00
1388.00
1273.00
1366.00
1422.00
1263.00
1416.00
1353.00
1483.00
1383.00
1427.00
1417.00
1411.00
1278.00
1321.00
1365.00
1355.00
1319.00
1391.00
1452.00
1369.00
1453.00
1390.00
1353.00
1373.00
1406.00
1492.00
1468.00
1460.00
1428.00
1344.00
1303.00
1480.00
1424.00
1351.00
1267.00
1306.00
1379.00
1343.00
1328.00
1411.00
1373.00
1413.00
1492.00
1432.00
1383.00
1276.00
1543.00
1416.00
1428.00
1404.00
1365.00
1351.00
1415.00
1531.00
1516.00
1441.00
1544.00
1470.00
1437.00
1460.00
1514.00
1483.00
1396.00
1381.00
1445.00
1428.00
1290.00
1381.00
1385.00
1309.00
1306.00
1432.00
1353.00
1316.00
1469.00
1362.00
1312.00
1417.00
1565.00
1732.00
1923.00
2272.00
2482.00
2594.00
2501.00
2166.00
1763.00
1428.00
1225.00
1365.00
1357.00
1352.00
1396.00
1375.00
1303.00
1289.00
1494.00
1365.00
1380.00
1338.00
1359.00
1323.00
1268.00
1514.00
1406.00
1516.00
1424.00
1393.00
1292.00
1281.00
1343.00
1481.00
1385.00
1513.00
1432.00
1469.00
1445.00
1464.00
1557.00
1457.00
1488.00
1503.00
1566.00
1562.00
1615.00
1700.00
1519.00
1595.00
1590.00
1569.00
1579.00
1635.00
1785.00
1676.00
1676.00
1711.00
1681.00
1552.00
1660.00
1649.00
1538.00
1504.00
1607.00
1419.00
1496.00
1453.00
1481.00
1483.00
1409.00
1506.00
1504.00
1467.00
1468.00
1351.00
1323.00
1309.00
1330.00
1432.00
1428.00
1340.00
1470.00
1325.00
1341.00
1416.00
1352.00
1453.00
1373.00
1494.00
1452.00
1441.00
1478.00
1492.00
1396.00
1303.00
1463.00
1370.00
1452.00
1477.00
1427.00
1415.00
1369.00
1382.00
1514.00
1357.00
1342.00
1463.00
1433.00
1393.00
1456.00
1396.00
1521.00
1387.00
1513.00
1424.00
1424.00
1370.00
1473.00
1457.00
1336.00
1483.00
1492.00
1369.00
1411.00
1393.00
1370.00
1388.00
1503.00
1488.00
1538.00
1441.00
1617.00
1684.00
1484.00
1582.00
1607.00
1695.00
1547.00
1635.00
1473.00
1411.00
1413.00
1592.00
1490.00
1433.00
1430.00
1255.00
1391.00
1343.00
1477.00
1401.00
1443.00
1369.00
1565.00
1325.00
1445.00
1531.00
1718.00
1770.00
2175.00
2430.00
2599.00
2695.00
2580.00
2296.00
1838.00
1521.00
1392.00
1273.00
1401.00
1437.00
1513.00
1385.00
1503.00
1545.00
1521.00
1455.00
1540.00
1453.00
1466.00
1428.00
1483.00
1531.00
1413.00
1590.00
1488.00
1519.00
1488.00
1499.00
1557.00
1561.00
1508.00
1647.00
1536.00
1562.00
1518.00
1676.00
1592.00
1604.00
1621.00
1637.00
1580.00
1715.00
1757.00
1711.00
1759.00
1681.00
1791.00
1666.00
1753.00
1848.00
1813.00
1886.00
1997.00
1795.00
1761.00
1648.00
1762.00
1694.00
1619.00
1747.00
1600.00
1592.00
1555.00
1589.00
1566.00
1548.00
1667.00
1739.00
1498.00
1597.00
1578.00
1557.00
1466.00
1567.00
1538.00
1527.00
1526.00
1513.00
1547.00
1516.00
1527.00
1634.00
1611.00
1538.00
1735.00
1669.00
1632.00
1471.00
1545.00
1488.00
1523.00
1508.00
1528.00
1460.00
1565.00
1624.00
1611.00
1478.00
1646.00
1580.00
1604.00
1642.00
1691.00
1607.00
1632.00
1565.00
1643.00
1534.00
1516.00
1611.00
1583.00
1548.00
1609.00
1632.00
1560.00
1624.00
1583.00
1700.00
1508.00
1565.00
1665.00
1615.00
1518.00
1659.00
1681.00
1713.00
1641.00
1679.00
1721.00
1664.00
1671.00
1803.00
1721.00
1664.00
1611.00
1672.00
1624.00
1618.00
1708.00
1649.00
1547.00
1546.00
1615.00
1490.00
1555.00
1543.00
1569.00
1474.00
1494.00
1615.00
1632.00
1716.00
1778.00
1985.00
2228.00
2489.00
2700.00
2611.00
2468.00
2124.00
1723.00
1477.00
1388.00
1521.00
1453.00
1497.00
1547.00
1514.00
1416.00
1584.00
1545.00
1664.00
1565.00
1565.00
1615.00
1595.00
1540.00
1591.00
1621.00
1494.00
1543.00
1638.00
1572.00
1598.00
1559.00
1635.00
1543.00
1599.00
1628.00
1615.00
1616.00
1775.00
1774.00
1647.00
1647.00
1761.00
1735.00
1769.00
1727.00
1709.00
1811.00
1854.00
1886.00
1945.00
1697.00
1791.00
1803.00
1833.00
1798.00
1877.00
1748.00
1730.00
1713.00
1798.00
1796.00
1734.00
1636.00
1732.00
1636.00
1676.00
1658.00
1573.00
1488.00
1490.00
1597.00
1593.00
1540.00
1567.00
1597.00
1593.00
1593.00
1557.00
1483.00
1477.00
1595.00
1641.00
1478.00
1569.00
1636.00
1561.00
1506.00
1585.00
1565.00
1573.00
1545.00
1583.00
1590.00
1467.00
1582.00
1604.00
1732.00
1538.00
1600.00
1521.00
1521.00
1547.00
1656.00
1528.00
1516.00
1513.00
1544.00
1431.00
1609.00
1514.00
1723.00
1629.00
1636.00
1669.00
1485.00
1541.00
1545.00
1503.00
1439.00
1518.00
1585.00
1604.00
1572.00
1676.00
1641.00
1577.00
1580.00
1698.00
1591.00
1721.00
1637.00
1665.00
1492.00
1557.00
1572.00
1598.00
1473.00
1578.00
1552.00
1467.00
1544.00
1595.00
1557.00
1457.00
1492.00
1477.00
1596.00
1393.00
1516.00
1637.00
1674.00
1790.00
1927.00
2186.00
2295.00
2581.00
2566.00
2176.00
1980.00
1607.00
1388.00
1306.00
1419.00
1496.00
1404.00
1453.00
1557.00
1441.00
1596.00
1426.00
1560.00
1561.00
1538.00
1535.00
1468.00
1477.00
1381.00
1432.00
1538.00
1456.00
1569.00
1599.00
1565.00
1607.00
1557.00
1610.00
1483.00
1516.00
1566.00
1506.00
1555.00
1659.00
1557.00
1666.00
1609.00
1718.00
1669.00
1591.00
1700.00
1617.00
1669.00
1759.00
1877.00
1778.00
1709.00
1830.00
1743.00
1769.00
1681.00
1676.00
1590.00
1679.00
1666.00
1702.00
1569.00
1591.00
1548.00
1611.00
1548.00
1468.00
1538.00
1561.00
1498.00
1573.00
1460.00
1317.00
1431.00
1455.00
1383.00
1435.00
1531.00
1462.00
1560.00
1413.00
1437.00
1397.00
1469.00
1516.00
1579.00
1535.00
1498.00
1455.00
1422.00
1432.00
1521.00
1546.00
1440.00
1473.00
1473.00
1445.00
1492.00
1444.00
1466.00
1345.00
1409.00
1426.00
1561.00
1526.00
1385.00
1488.00
1466.00
1443.00
1480.00
1528.00
1365.00
1404.00
1437.00
1468.00
1439.00
1441.00
1388.00
1411.00
1330.00
1494.00
1529.00
1478.00
1456.00
1543.00
1506.00
1584.00
1577.00
1584.00
1508.00
1457.00
1557.00
1531.00
1478.00
1557.00
1485.00
1470.00
1381.00
1504.00
1466.00
1258.00
1361.00
1387.00
1443.00
1330.00
1377.00
1336.00
1456.00
1361.00
1457.00
1419.00
1658.00
1865.00
2147.00
2361.00
2491.00
2489.00
2238.00
1929.00
1506.00
1325.00
1191.00
1251.00
1342.00
1380.00
1338.00
1415.00
1385.00
1406.00
1373.00
1419.00
1432.00
1370.00
1373.00
1430.00
1348.00
1285.00
1411.00
1417.00
1440.00
1415.00
1445.00
1336.00
1460.00
1462.00
1490.00
1467.00
1419.00
1518.00
1476.00
1422.00
1518.00
1490.00
1496.00
1439.00
1483.00
1547.00
1545.00
1544.00
1727.00
1552.00
1597.00
1649.00
1689.00
1514.00
1670.00
1627.00
1656.00
1658.00
1656.00
1674.00
1567.00
1557.00
1559.00
1531.00
1467.00
1456.00
1529.00
1578.00
1509.00
1504.00
1439.00
1292.00
1325.00
1391.00
1415.00
1251.00
1396.00
1411.00
1478.00
1302.00
1546.00
1379.00
1383.00
1367.00
1387.00
1258.00
1427.00
1294.00
1503.00
1362.00
1417.00
1462.00
1419.00
1338.00
1413.00
1404.00
1365.00
1393.00
1518.00
1305.00
1411.00
1355.00
1426.00
1419.00
1289.00
1473.00
1315.00
1379.00
1300.00
1441.00
1369.00
1385.00
1444.00
1430.00
1325.00
1370.00
1325.00
1382.00
1321.00
1417.00
1490.00
1415.00
1462.00
1428.00
1470.00
1336.00
1416.00
1473.00
1396.00
1440.00
1468.00
1441.00
1469.00
1529.00
1466.00
1406.00
1325.00
1393.00
1373.00
1338.00
1424.00
1431.00
1401.00
1369.00
1299.00
1319.00
1207.00
1345.00
1478.00
1401.00
1341.00
1339.00
1369.00
1411.00
1485.00
1711.00
2047.00
2275.00
2521.00
2601.00
2368.00
1989.00
1611.00
1411.00
1153.00
1236.00
1321.00
1367.00
1331.00
1260.00
1379.00
1292.00
1321.00
1366.00
1303.00
1284.00
1379.00
1374.00
1417.00
1306.00
1424.00
1393.00
1343.00
1503.00
1393.00
1287.00
1365.00
1344.00
1456.00
1338.00
1369.00
1391.00
1388.00
1429.00
1469.00
1477.00
1456.00
1526.00
1588.00
1580.00
1478.00
1567.00
1694.00
1572.00
1635.00
1557.00
1557.00
1580.00
1512.00
1647.00
1622.00
1686.00
1746.00
1686.00
1529.00
1486.00
1533.00
1490.00
1445.00
1393.00
1385.00
1357.00
1523.00
1485.00
1416.00
1411.00
1318.00
1351.00
1369.00
1330.00
1369.00
1331.00
1390.00
1430.00
1406.00
1248.00
1267.00
1351.00
1445.00
1300.00
1379.00
1401.00
1387.00
1263.00
1538.00
1379.00
1316.00
1374.00
1373.00
1355.00
1365.00
1419.00
1379.00
1417.00
1309.00
1373.00
1325.00
1357.00
1292.00
1393.00
1312.00
1355.00
1406.00
1440.00
1285.00
1373.00
1370.00
1379.00
1275.00
1352.00
1338.00
1355.00
1231.00
1404.00
1303.00
1294.00
1503.00
1416.00
1424.00
1365.00
1406.00
1401.00
1456.00
1492.00
1514.00
1387.00
1428.00
1490.00
1433.00
1352.00
1393.00
1439.00
1415.00
1285.00
1336.00
1437.00
1328.00
1265.00
1311.00
1222.00
1292.00
1343.00
1336.00
1306.00
1248.00
1336.00
1393.00
1456.00
1644.00
1878.00
1989.00
2201.00
2463.00
2480.00
2206.00
1837.00
1470.00
1274.00
1170.00
1260.00
1300.00
1234.00
1292.00
1341.00
1260.00
1225.00
1336.00
1251.00
1343.00
1338.00
1365.00
1303.00
1328.00
1393.00
1306.00
1393.00
1279.00
1299.00
1344.00
1326.00
1273.00
1444.00
1406.00
1377.00
1455.00
1519.00
1406.00
1428.00
1463.00
1453.00
1417.00
1531.00
1560.00
1483.00
1577.00
1578.00
1483.00
1428.00
1555.00
1647.00
1588.00
1595.00
1604.00
1642.00
1560.00
1610.00
1624.00
1615.00
1523.00
1568.00
1445.00
1443.00
1444.00
1404.00
1362.00
1370.00
1445.00
1379.00
1430.00
1316.00
1404.00
1353.00
1325.00
1365.00
1343.00
1204.00
1385.00
1338.00
1373.00
1312.00
1310.00
1379.00
1403.00
1336.00
1343.00
1281.00
1351.00
1387.00
1344.00
1452.00
1339.00
1401.00
1424.00
1341.00
1325.00
1365.00
1331.00
1359.00
1286.00
1415.00
1211.00
1323.00
1445.00
1393.00
1338.00
1305.00
1473.00
1516.00
1339.00
1338.00
1289.00
1308.00
1317.00
1401.00
1325.00
1278.00
1326.00
1361.00
1379.00
1365.00
1458.00
1353.00
1330.00
1393.00
1428.00
1365.00
1460.00
1538.00
1531.00
1357.00
1490.00
1455.00
1445.00
1411.00
1379.00
1445.00
1380.00
1406.00
1440.00
1379.00
1341.00
1273.00
1331.00
1306.00
1305.00
1362.00
1385.00
1284.00
1241.00
1303.00
1309.00
1437.00
1514.00
1865.00
2052.00
2322.00
2464.00
2432.00
2052.00
1842.00
1422.00
1204.00
1167.00
1274.00
1215.00
1188.00
1285.00
1397.00
1338.00
1357.00
1366.00
1381.00
1316.00
1445.00
1433.00
1287.00
1284.00
1297.00
1404.00
1222.00
1441.00
1365.00
1471.00
1331.00
1455.00
1365.00
1416.00
1458.00
1452.00
1463.00
1470.00
1381.00
1490.00
1456.00
1441.00
1569.00
1519.00
1582.00
1526.00
1637.00
1492.00
1441.00
1582.00
1656.00
1623.00
1681.00
1695.00
1764.00
1623.00
1569.00
1508.00
1509.00
1535.00
1628.00
1629.00
1502.00
1487.00
1521.00
1338.00
1428.00
1393.00
1323.00
1407.00
1323.00
1440.00
1264.00
1419.00
1415.00
1370.00
1311.00
1349.00
1453.00
1357.00
1440.00
1440.00
1344.00
1457.00
1335.00
1462.00
1426.00
1312.00
1388.00
1413.00
1292.00
1278.00
1374.00
1341.00
1444.00
1422.00
1473.00
1303.00
1379.00
1388.00
1409.00
1339.00
1351.00
1338.00
1437.00
1361.00
1413.00
1366.00
1330.00
1341.00
1428.00
1483.00
1357.00
1305.00
1431.00
1365.00
1400.00
1454.00
1417.00
1362.00
1330.00
1386.00
1292.00
1341.00
1390.00
1513.00
1303.00
1473.00
1462.00
1470.00
1416.00
1494.00
1572.00
1534.00
1460.00
1504.00
1454.00
1377.00
1411.00
1383.00
1373.00
1349.00
1391.00
1437.00
1382.00
1373.00
1328.00
1254.00
1260.00
1439.00
1428.00
1275.00
1344.00
1470.00
1656.00
1852.00
2178.00
2347.00
2465.00
2482.00
2218.00
1847.00
1383.00
1251.00
1188.00
1213.00
1273.00
1365.00
1457.00
1391.00
1445.00
1417.00
1361.00
1285.00
1404.00
1379.00
1339.00
1428.00
1483.00
1377.00
1341.00
1478.00
1443.00
1428.00
1373.00
1513.00
1362.00
1445.00
1540.00
1456.00
1377.00
1323.00
1485.00
1488.00
1534.00
1526.00
1596.00
1508.00
1535.00
1604.00
1565.00
1452.00
1590.00
1721.00
1640.00
1669.00
1724.00
1595.00
1709.00
1753.00
1725.00
1611.00
1567.00
1529.00
1635.00
1584.00
1535.00
1521.00
1545.00
1393.00
1498.00
1404.00
1331.00
1460.00
1370.00
1445.00
1514.00
1443.00
1531.00
1531.00
1365.00
1437.00
1335.00
1353.00
1385.00
1379.00
1361.00
1328.00
1386.00
1445.00
1535.00
1483.00
1508.00
1325.00
1323.00
1379.00
1416.00
1375.00
1355.00
1477.00
1444.00
1383.00
1406.00
1406.00
1443.00
1374.00
1473.00
1404.00
1390.00
1411.00
1463.00
1388.00
1362.00
1456.00
1496.00
1452.00
1344.00
1363.00
1352.00
1344.00
1445.00
1496.00
1430.00
1355.00
1415.00
1415.00
1401.00
1367.00
1433.00
1365.00
1339.00
1416.00
1365.00
1381.00
1400.00
1513.00
1508.00
1529.00
1595.00
1543.00
1504.00
1415.00
1429.00
1548.00
1541.00
1504.00
1617.00
1445.00
1415.00
1437.00
1416.00
1260.00
1379.00
1393.00
1460.00
1441.00
1494.00
1308.00
1343.00
1275.00
1381.00
1312.00
1385.00
1419.00
1473.00
1682.00
1911.00
2240.00
2444.00
2599.00
2557.00
2251.00
1810.00
1540.00
1313.00
1309.00
1241.00
1236.00
1452.00
1351.00
1381.00
1409.00
1351.00
1413.00
1374.00
1406.00
1278.00
1352.00
1353.00
1409.00
1390.00
1335.00
1470.00
1474.00
1374.00
1483.00
1492.00
1452.00
1452.00
1543.00
1526.00
1411.00
1426.00
1502.00
1445.00
1508.00
1534.00
1512.00
1521.00
1518.00
1518.00
1557.00
1607.00
1681.00
1746.00
1718.00
1540.00
1636.00
1584.00
1659.00
1669.00
1837.00
1573.00
1665.00
1617.00
1604.00
1535.00
1519.00
1562.00
1545.00
1413.00
1492.00
1462.00
1433.00
1393.00
1483.00
1460.00
1375.00
1416.00
1444.00
1377.00
1373.00
1422.00
1432.00
1352.00
1437.00
1488.00
1357.00
1365.00
1393.00
1381.00
1366.00
1345.00
1470.00
1424.00
1429.00
1452.00
1365.00
1413.00
1365.00
1567.00
1443.00
1339.00
1417.00
1478.00
1468.00
1415.00
1387.00
1390.00
1373.00
1430.00
1365.00
1406.00
1331.00
1468.00
1502.00
1370.00
1294.00
1387.00
1441.00
1302.00
1406.00
1374.00
1445.00
1402.00
1508.00
1486.00
1427.00
1388.00
1434.00
1339.00
1338.00
1391.00
1391.00
1406.00
1312.00
1406.00
1323.00
1373.00
1504.00
1572.00
1412.00
1528.00
1592.00
1545.00
1492.00
1483.00
1509.00
1521.00
1443.00
1518.00
1462.00
1336.00
1374.00
1508.00
1393.00
1411.00
1393.00
1370.00
1401.00
1445.00
1473.00
1316.00
1323.00
1377.00
1437.00
1303.00
1385.00
1508.00
1646.00
1798.00
2167.00
2408.00
2573.00
2607.00
2386.00
1949.00
1463.00
1309.00
1306.00
1365.00
1273.00
1413.00
1325.00
1308.00
1303.00
1409.00
1326.00
1260.00
1463.00
1481.00
1361.00
1456.00
1416.00
1483.00
1357.00
1456.00
1318.00
1428.00
1506.00
1504.00
1540.00
1460.00
1496.00
1468.00
1404.00
1433.00
1514.00
1531.00
1591.00
1518.00
1592.00
1483.00
1473.00
1604.00
1642.00
1591.00
1684.00
1679.00
1700.00
1669.00
1705.00
1676.00
1733.00
1656.00
1724.00
1723.00
1744.00
1739.00
1768.00
1642.00
1565.00
1523.00
1578.00
1476.00
1504.00
1533.00
1468.00
1503.00
1453.00
1526.00
1379.00
1379.00
1506.00
1526.00
1527.00
1483.00
1506.00
1424.00
1385.00
1365.00
1404.00
1460.00
1411.00
1547.00
1428.00
1463.00
1557.00
1466.00
1463.00
1430.00
1555.00
1413.00
1485.00
1443.00
1531.00
1404.00
1415.00
1494.00
1478.00
1406.00
1488.00
1411.00
1494.00
1377.00
1387.00
1433.00
1503.00
1480.00
1516.00
1396.00
1473.00
1600.00
1470.00
1503.00
1534.00
1468.00
1437.00
1393.00
1508.00
1454.00
1400.00
1469.00
1534.00
1607.00
1453.00
1453.00
1430.00
1457.00
1462.00
1582.00
1527.00
1521.00
1452.00
1506.00
1513.00
1513.00
1597.00
1610.00
1545.00
1665.00
1616.00
1561.00
1597.00
1593.00
1656.00
1566.00
1569.00
1502.00
1582.00
1359.00
1379.00
1443.00
1437.00
1460.00
1616.00
1568.00
1445.00
1463.00
1453.00
1281.00
1319.00
1406.00
1543.00
1628.00
1954.00
2166.00
2415.00
2548.00
2548.00
2368.00
2076.00
1605.00
1428.00
1265.00
1299.00
1339.00
1494.00
1485.00
1382.00
1521.00
1463.00
1375.00
1402.00
1506.00
1519.00
1393.00
1546.00
1492.00
1428.00
1456.00
1523.00
1496.00
1485.00
1580.00
1512.00
1480.00
1456.00
1588.00
1597.00
1589.00
1490.00
1600.00
1580.00
1508.00
1590.00
1694.00
1595.00
1615.00
1722.00
1630.00
1669.00
1711.00
1735.00
1762.00
1759.00
1835.00
1714.00
1658.00
1734.00
1757.00
1678.00
1798.00
1676.00
1772.00
1658.00
1669.00
1695.00
1618.00
1672.00
1519.00
1513.00
1481.00
1508.00
1624.00
1428.00
1483.00
1506.00
1516.00
1534.00
1453.00
1478.00
1430.00
1498.00
1474.00
1545.00
1453.00
1492.00
1548.00
1490.00
1463.00
1483.00
1513.00
1441.00
1474.00
1494.00
1521.00
1496.00
1473.00
1534.00
1468.00
1455.00
1468.00
1566.00
1415.00
1455.00
1531.00
1460.00
1476.00
1572.00
1595.00
1430.00
1529.00
1478.00
1496.00
1432.00
1494.00
1498.00
1557.00
1488.00
1544.00
1404.00
1430.00
1445.00
1504.00
1441.00
1463.00
1485.00
1469.00
1433.00
1514.00
1583.00
1462.00
1574.00
1453.00
1504.00
1361.00
1453.00
1527.00
1557.00
1481.00
1533.00
1533.00
1619.00
1595.00
1620.00
1577.00
1483.00
1580.00
1555.00
1533.00
1428.00
1531.00
1513.00
1411.00
1441.00
1506.00
1460.00
1365.00
1473.00
1483.00
1490.00
1492.00
1462.00
1366.00
1289.00
1430.00
1545.00
1679.00
1781.00
2085.00
2302.00
2418.00
2544.00
2404.00
2045.00
1573.00
1477.00
1331.00
1336.00
1477.00
1416.00
1344.00
1401.00
1514.00
1513.00
1381.00
1416.00
1516.00
1444.00
1357.00
1342.00
1396.00
1430.00
1445.00
1588.00
1441.00
1441.00
1432.00
1513.00
1496.00
1561.00
1572.00
1545.00
1492.00
1478.00
1578.00
1514.00
1501.00
1574.00
1488.00
1567.00
1583.00
1705.00
1642.00
1636.00
1548.00
1635.00
1624.00
1730.00
1723.00
1743.00
1721.00
1743.00
1759.00
1674.00
1686.00
1676.00
1634.00
1600.00
1608.00
1611.00
1526.00
1566.00
1409.00
1610.00
1457.00
1468.00
1548.00
1466.00
1417.00
1428.00
1469.00
1470.00
1352.00
1494.00
1393.00
1468.00
1426.00
1483.00
1409.00
1387.00
1351.00
1369.00
1362.00
1441.00
1506.00
1415.00
1454.00
1477.00
1488.00
1387.00
1417.00
1445.00
1426.00
1349.00
1381.00
1352.00
1426.00
1411.00
1456.00
1504.00
1341.00
1466.00
1330.00
1362.00
1365.00
1380.00
1400.00
1287.00
1357.00
1416.00
1396.00
1385.00
1474.00
1513.00
1388.00
1462.00
1478.00
1462.00
1413.00
1440.00
1406.00
1351.00
1365.00
1406.00
1377.00
1401.00
1419.00
1437.00
1411.00
1328.00
1429.00
1424.00
1393.00
1488.00
1540.00
1485.00
1393.00
1600.00
1445.00
1473.00
1533.00
1419.00
1582.00
1456.00
1543.00
1490.00
1367.00
1377.00
1445.00
1419.00
1415.00
1393.00
1466.00
1365.00
1351.00
1377.00
1387.00
1313.00
1416.00
1424.00
1309.00
1265.00
1374.00
1413.00
1485.00
1774.00
2135.00
2421.00
2521.00
2529.00
2161.00
1815.00
1453.00
1404.00
1292.00
1323.00
1336.00
1377.00
1377.00
1315.00
1362.00
1352.00
1331.00
1353.00
1407.00
1316.00
1292.00
1352.00
1352.00
1351.00
1292.00
1437.00
1485.00
1281.00
1401.00
1432.00
1411.00
1401.00
1468.00
1473.00
1428.00
1365.00
1467.00
1483.00
1387.00
1514.00
1496.00
1463.00
1533.00
1671.00
1533.00
1543.00
1544.00
1658.00
1592.00
1674.00
1622.00
1656.00
1529.00
1632.00
1656.00
1656.00
1569.00
1600.00
1624.00
1568.00
1518.00
1609.00
1474.00
1485.00
1406.00
1401.00
1365.00
1402.00
1454.00
1351.00
1308.00
1416.00
1494.00
1338.00
1330.00
1417.00
1409.00
1344.00
1363.00
1401.00
1318.00
1443.00
1352.00
1290.00
1366.00
1290.00
1379.00
1388.00
1312.00
1413.00
1455.00
1369.00
1424.00
1413.00
1272.00
1339.00
1330.00
1428.00
1249.00
1338.00
1432.00
1441.00
1382.00
1338.00
1366.00
1406.00
1305.00
1411.00
1353.00
1325.00
1292.00
1309.00
1362.00
1260.00
1441.00
1374.00
1381.00
1383.00
1370.00
1323.00
1351.00
1380.00
1381.00
1312.00
1343.00
1374.00
1455.00
1317.00
1306.00
1353.00
1428.00
1353.00
1411.00
1342.00
1326.00
1323.00
1404.00
1341.00
1417.00
1470.00
1457.00
1424.00
1431.00
1473.00
1456.00
1467.00
1468.00
1483.00
1419.00
1339.00
1407.00
1312.00
1369.00
1351.00
1361.00
1352.00
1302.00
1373.00
1328.00
1290.00
1341.00
1409.00
1299.00
1263.00
1305.00
1379.00
1481.00
1741.00
2014.00
2280.00
2512.00
2544.00
2360.00
1915.00
1516.00
1300.00
1129.00
1209.00
1253.00
1393.00
1419.00
1323.00
1390.00
1309.00
1204.00
1305.00
1325.00
1306.00
1328.00
1236.00
1365.00
1266.00
1338.00
1323.00
1325.00
1343.00
1385.00
1415.00
1388.00
1341.00
1437.00
1437.00
1355.00
1457.00
1426.00
1453.00
1311.00
1531.00
1463.00
1401.00
1456.00
1443.00
1516.00
1521.00
1624.00
1671.00
1527.00
1538.00
1588.00
1583.00
1643.00
1673.00
1642.00
1561.00
1494.00
1628.00
1583.00
1474.00
1526.00
1483.00
1455.00
1365.00
1411.00
1440.00
1388.00
1422.00
1458.00
1391.00
1312.00
1278.00
1273.00
1262.00
1341.00
1365.00
1361.00
1325.00
1260.00
1328.00
1220.00
1303.00
1393.00
1393.00
1325.00
1338.00
1373.00
1370.00
1305.00
1377.00
1391.00
1353.00
1385.00
1380.00
1279.00
1251.00
1311.00
1316.00
1382.00
1338.00
1373.00
1381.00
1248.00
1308.00
1406.00
1228.00
1292.00
1336.00
1325.00
1328.00
1401.00
1370.00
1323.00
1192.00
1237.00
1276.00
1285.00
1344.00
1387.00
1284.00
1278.00
1268.00
1353.00
1237.00
1263.00
1309.00
1321.00
1273.00
1330.00
1381.00
1281.00
1267.00
1339.00
1272.00
1289.00
1330.00
1388.00
1365.00
1305.00
1440.00
1469.00
1440.00
1416.00
1393.00
1440.00
1433.00
1427.00
1355.00
1325.00
1284.00
1478.00
1312.00
1335.00
1191.00
1285.00
1222.00
1321.00
1417.00
1456.00
1258.00
1236.00
1209.00
1273.00
1231.00
1427.00
1387.00
1535.00
1865.00
2197.00
2364.00
2435.00
2325.00
2113.00
1642.00
1220.00
1223.00
1175.00
1173.00
1349.00
1311.00
1259.00
1273.00
1251.00
1387.00
1204.00
1285.00
1262.00
1300.00
1201.00
1379.00
1300.00
1294.00
1343.00
1428.00
1391.00
1444.00
1365.00
1302.00
1231.00
1313.00
1400.00
1396.00
1325.00
1387.00
1424.00
1353.00
1388.00
1357.00
1494.00
1361.00
1569.00
1597.00
1538.00
1470.00
1544.00
1658.00
1535.00
1672.00
1634.00
1583.00
1544.00
1646.00
1619.00
1540.00
1569.00
1521.00
1470.00
1415.00
1440.00
1473.00
1338.00
1339.00
1453.00
1469.00
1374.00
1406.00
1377.00
1365.00
1339.00
1379.00
1362.00
1289.00
1315.00
1260.00
1276.00
1183.00
1278.00
1365.00
1344.00
1353.00
1285.00
1260.00
1313.00
1312.00
1569.00
1335.00
1387.00
1377.00
1432.00
1278.00
1294.00
1361.00
1313.00
1335.00
1386.00
1353.00
1266.00
1281.00
1309.00
1331.00
1317.00
1338.00
1292.00
1279.00
1353.00
1300.00
1336.00
1300.00
1305.00
1434.00
1263.00
1299.00
1331.00
1404.00
1312.00
1351.00
1379.00
1321.00
1289.00
1351.00
1273.00
1294.00
1287.00
1341.00
1440.00
1260.00
1326.00
1424.00
1316.00
1316.00
1460.00
1352.00
1387.00
1409.00
1477.00
1456.00
1528.00
1466.00
1485.00
1311.00
1441.00
1416.00
1471.00
1365.00
1339.00
1276.00
1258.00
1365.00
1276.00
1279.00
1328.00
1323.00
1383.00
1338.00
1349.00
1228.00
1374.00
1284.00
1411.00
1593.00
1752.00
2030.00
2362.00
2524.00
2475.00
2147.00
1798.00
1424.00
1175.00
1237.00
1263.00
1255.00
1323.00
1373.00
1253.00
1299.00
1201.00
1335.00
1287.00
1411.00
1401.00
1415.00
1263.00
1279.00
1321.00
1335.00
1365.00
1445.00
1513.00
1367.00
1379.00
1413.00
1402.00
1377.00
1455.00
1396.00
1463.00
1391.00
1466.00
1445.00
1531.00
1509.00
1597.00
1519.00
1545.00
1518.00
1555.00
1527.00
1619.00
1674.00
1624.00
1624.00
1604.00
1636.00
1526.00
1634.00
1607.00
1695.00
1629.00
1617.00
1590.00
1439.00
1552.00
1396.00
1417.00
1339.00
1326.00
1393.00
1401.00
1457.00
1352.00
1338.00
1335.00
1407.00
1365.00
1393.00
1273.00
1289.00
1416.00
1299.00
1387.00
1467.00
1328.00
1315.00
1315.00
1357.00
1323.00
1431.00
1457.00
1430.00
1365.00
1381.00
1379.00
1365.00
1300.00
1391.00
1309.00
1412.00
1388.00
1357.00
1330.00
1331.00
1457.00
1453.00
1259.00
1370.00
1260.00
1416.00
1379.00
1311.00
1272.00
1294.00
1297.00
1424.00
1380.00
1377.00
1387.00
1412.00
1325.00
1323.00
1391.00
1365.00
1326.00
1388.00
1396.00
1263.00
1362.00
1433.00
1401.00
1311.00
1279.00
1388.00
1428.00
1331.00
1395.00
1467.00
1483.00
1484.00
1514.00
1485.00
1514.00
1498.00
1557.00
1535.00
1437.00
1471.00
1300.00
1328.00
1323.00
1357.00
1309.00
1353.00
1417.00
1486.00
1330.00
1325.00
1393.00
1321.00
1349.00
1366.00
1377.00
1466.00
1432.00
1741.00
2016.00
2290.00
2568.00
2653.00
2440.00
1993.00
1659.00
1309.00
1191.00
1262.00
1379.00
1299.00
1357.00
1344.00
1330.00
1312.00
1268.00
1353.00
1251.00
1280.00
1323.00
1386.00
1379.00
1380.00
1415.00
1363.00
1302.00
1351.00
1478.00
1462.00
1379.00
1463.00
1534.00
1488.00
1538.00
1391.00
1315.00
1403.00
1518.00
1463.00
1478.00
1502.00
1492.00
1569.00
1488.00
1643.00
1555.00
1607.00
1609.00
1686.00
1619.00
1567.00
1656.00
1682.00
1624.00
1607.00
1697.00
1577.00
1691.00
1590.00
1590.00
1417.00
1460.00
1516.00
1535.00
1415.00
1416.00
1437.00
1462.00
1361.00
1422.00
1445.00
1411.00
1419.00
1502.00
1341.00
1424.00
1343.00
1441.00
1381.00
1317.00
1406.00
1330.00
1263.00
1478.00
1473.00
1393.00
1377.00
1426.00
1415.00
1383.00
1326.00
1406.00
1336.00
1306.00
1516.00
1362.00
1462.00
1331.00
1370.00
1377.00
1284.00
1445.00
1366.00
1444.00
1428.00
1437.00
1508.00
1351.00
1428.00
1433.00
1349.00
1374.00
1424.00
1385.00
1355.00
1344.00
1428.00
1377.00
1308.00
1275.00
1338.00
1361.00
1330.00
1474.00
1393.00
1428.00
1366.00
1413.00
1349.00
1306.00
1488.00
1379.00
1392.00
1409.00
1516.00
1416.00
1385.00
1502.00
1411.00
1534.00
1469.00
1528.00
1526.00
1400.00
1407.00
1562.00
1441.00
1367.00
1379.00
1250.00
1246.00
1292.00
1393.00
1383.00
1331.00
1361.00
1363.00
1319.00
1338.00
1468.00
1473.00
1763.00
2045.00
2316.00
2479.00
2645.00
2507.00
2231.00
1747.00
1467.00
1234.00
1239.00
1228.00
1317.00
1396.00
1385.00
1377.00
1366.00
1349.00
1251.00
1303.00
1381.00
1325.00
1292.00
1415.00
1361.00
1316.00
1401.00
1419.00
1303.00
1365.00
1426.00
1462.00
1404.00
1419.00
1476.00
1353.00
1437.00
1498.00
1460.00
1485.00
1424.00
1529.00
1545.00
1490.00
1580.00
1559.00
1441.00
1568.00
1635.00
1545.00
1646.00
1656.00
1738.00
1607.00
1604.00
1636.00
1681.00
1621.00
1714.00
1611.00
1597.00
1490.00
1545.00
1529.00
1452.00
1483.00
1503.00
1388.00
1362.00
1508.00
1490.00
1391.00
1417.00
1431.00
1316.00
1352.00
1488.00
1379.00
1323.00
1292.00
1349.00
1352.00
1338.00
1388.00
1369.00
1432.00
1383.00
1387.00
1452.00
1272.00
1393.00
1393.00
1357.00
1361.00
1385.00
1441.00
1379.00
1445.00
1477.00
1339.00
1305.00
1374.00
1344.00
1381.00
1430.00
1365.00
1422.00
1250.00
1365.00
1341.00
1353.00
1390.00
1379.00
1385.00
1305.00
1377.00
1393.00
1385.00
1331.00
1424.00
1341.00
1412.00
1426.00
1441.00
1379.00
1290.00
1328.00
1385.00
1268.00
1365.00
1432.00
1519.00
1434.00
1492.00
1463.00
1485.00
1478.00
1618.00
1504.00
1518.00
1388.00
1377.00
1422.00
1383.00
1390.00
1381.00
1315.00
1330.00
1330.00
1392.00
1326.00
1393.00
1462.00
1325.00
1373.00
1373.00
1432.00
1338.00
1477.00
1527.00
1670.00
1900.00
2284.00
2451.00
2573.00
2298.00
2080.00
1484.00
1331.00
1141.00
1275.00
1258.00
1374.00
1362.00
1297.00
1239.00
1401.00
1440.00
1338.00
1365.00
1241.00
1343.00
1207.00
1279.00
1366.00
1445.00
1355.00
1462.00
1468.00
1352.00
1379.00
1428.00
1331.00
1316.00
1460.00
1504.00
1463.00
1432.00
1466.00
1419.00
1462.00
1483.00
1622.00
1473.00
1521.00
1548.00
1595.00
1609.00
1673.00
1624.00
1647.00
1561.00
1642.00
1583.00
1624.00
1658.00
1732.00
1589.00
1578.00
1637.00
1580.00
1504.00
1591.00
1508.00
1473.00
1419.00
1447.00
1476.00
1401.00
1353.00
1406.00
1380.00
1248.00
1357.00
1441.00
1432.00
1453.00
1401.00
1411.00
1317.00
1373.00
1338.00
1260.00
1361.00
1386.00
1457.00
1323.00
1328.00
1303.00
1365.00
1302.00
1442.00
1437.00
1422.00
1306.00
1383.00
1437.00
1321.00
1365.00
1406.00
1411.00
1292.00
1383.00
1196.00
1352.00
1331.00
1462.00
1369.00
1439.00
1430.00
1426.00
1440.00
1276.00
1419.00
1342.00
1404.00
1437.00
1428.00
1300.00
1290.00
1379.00
1370.00
1415.00
1390.00
1531.00
1419.00
1401.00
1454.00
1437.00
1415.00
1433.00
1492.00
1428.00
1432.00
1416.00
1462.00
1452.00
1431.00
1437.00
1338.00
1361.00
1330.00
1387.00
1268.00
1315.00
1335.00
1374.00
1323.00
1312.00
1353.00
1316.00
1267.00
1311.00
1331.00
1234.00
1673.00
1867.00
2074.00
2352.00
2532.00
2526.00
2200.00
1795.00
1406.00
1148.00
1125.00
1204.00
1343.00
1222.00
1223.00
1409.00
1374.00
1386.00
1422.00
1352.00
1351.00
1351.00
1406.00
1377.00
1336.00
1415.00
1340.00
1397.00
1339.00
1407.00
1473.00
1441.00
1455.00
1404.00
1355.00
1236.00
1444.00
1526.00
1381.00
1477.00
1455.00
1518.00
1477.00
1546.00
1492.00
1552.00
1478.00
1619.00
1569.00
1590.00
1569.00
1607.00
1547.00
1656.00
1666.00
1724.00
1597.00
1588.00
1583.00
1478.00
1552.00
1583.00
1637.00
1534.00
1477.00
1504.00
1416.00
1411.00
1402.00
1415.00
1391.00
1353.00
1404.00
1326.00
1413.00
1388.00
1428.00
1305.00
1335.00
1292.00
1379.00
1417.00
1412.00
1462.00
1455.00
1457.00
1415.00
1460.00
1237.00
1366.00
1393.00
1379.00
1294.00
1290.00
1343.00
1367.00
1417.00
1437.00
1416.00
1385.00
1312.00
1352.00
1300.00
1284.00
1417.00
1440.00
1426.00
1411.00
1387.00
1362.00
1331.00
1455.00
1385.00
1315.00
1265.00
1387.00
1375.00
1289.00
1308.00
1341.00
1351.00
1302.00
1424.00
1366.00
1336.00
1370.00
1344.00
1339.00
1373.00
1427.00
1473.00
1432.00
1466.00
1578.00
1534.00
1535.00
1527.00
1498.00
1300.00
1357.00
1369.00
1427.00
1275.00
1323.00
1379.00
1383.00
1357.00
1325.00
1369.00
1413.00
1404.00
1439.00
1284.00
1236.00
1315.00
1390.00
1382.00
1607.00
1770.00
2026.00
2339.00
2552.00
2647.00
2218.00
1915.00
1494.00
1276.00
1148.00
1299.00
1382.00
1323.00
1351.00
1328.00
1302.00
1305.00
1209.00
1393.00
1299.00
1302.00
1351.00
1281.00
1289.00
1325.00
1393.00
1401.00
1344.00
1361.00
1369.00
1284.00
1308.00
1411.00
1406.00
1433.00
1440.00
1521.00
1468.00
1428.00
1478.00
1433.00
1490.00
1632.00
1628.00
1669.00
1596.00
1617.00
1585.00
1540.00
1483.00
1566.00
1565.00
1635.00
1679.00
1738.00
1658.00
1629.00
1709.00
1641.00
1609.00
1518.00
1583.00
1557.00
1488.00
1488.00
1508.00
1341.00
1348.00
1411.00
1383.00
1369.00
1441.00
1406.00
1400.00
1310.00
1460.00
1432.00
1416.00
1419.00
1422.00
1338.00
1312.00
1379.00
1548.00
1385.00
1478.00
1478.00
1374.00
1381.00
1416.00
1381.00
1341.00
1355.00
1404.00
1393.00
1406.00
1490.00
1463.00
1462.00
1432.00
1468.00
1411.00
1441.00
1419.00
1453.00
1466.00
1455.00
1456.00
1463.00
1319.00
1419.00
1440.00
1492.00
1385.00
1369.00
1407.00
1396.00
1400.00
1506.00
1483.00
1455.00
1468.00
1452.00
1463.00
1460.00
1548.00
1463.00
1437.00
1391.00
1442.00
1328.00
1455.00
1392.00
1540.00
1535.00
1533.00
1622.00
1560.00
1617.00
1638.00
1647.00
1647.00
1527.00
1582.00
1469.00
1462.00
1467.00
1445.00
1440.00
1391.00
1463.00
1393.00
1338.00
1419.00
1516.00
1432.00
1492.00
1529.00
1521.00
1379.00
1628.00
1815.00
2082.00
2254.00
2569.00
2696.00
2615.00
2286.00
1860.00
1492.00
1239.00
1362.00
1452.00
1445.00
1463.00
1502.00
1406.00
1444.00
1419.00
1533.00
1439.00
1469.00
1440.00
1469.00
1417.00
1401.00
1471.00
1509.00
1469.00
1584.00
1506.00
1574.00
1477.00
1621.00
1561.00
1490.00
1553.00
1547.00
1521.00
1528.00
1569.00
1560.00
1531.00
1565.00
1659.00
1641.00
1650.00
1743.00
1812.00
1681.00
1700.00
1746.00
1810.00
1762.00
1812.00
1785.00
1798.00
1798.00
1891.00
1786.00
1775.00
1739.00
1695.00
1643.00
1588.00
1595.00
1593.00
1588.00
1557.00
1599.00
1486.00
1523.00
1583.00
1595.00
1496.00
1492.00
1490.00
1535.00
1514.00
1573.00
1560.00
1457.00
1457.00
1544.00
1521.00
1506.00
1519.00
1567.00
1519.00
1480.00
1513.00
1488.00
1545.00
1583.00
1664.00
1658.00
1543.00
1580.00
1544.00
1375.00
1544.00
1535.00
1543.00
1473.00
1588.00
1531.00
1535.00
1526.00
1569.00
1492.00
1490.00
1503.00
1513.00
1540.00
1437.00
1527.00
1547.00
1512.00
1498.00
1566.00
1428.00
1533.00
1513.00
1624.00
1485.00
1512.00
1555.00
1506.00
1466.00
1533.00
1467.00
1445.00
1573.00
1566.00
1600.00
1534.00
1497.00
1611.00
1583.00
1591.00
1748.00
1647.00
1600.00
1697.00
1700.00
1561.00
1467.00
1584.00
1494.00
1478.00
1506.00
1538.00
1577.00
1490.00
1518.00
1514.00
1555.00
1477.00
1548.00
1467.00
1393.00
1557.00
1483.00
1628.00
1679.00
1937.00
2144.00
2400.00
2573.00
2707.00
2414.00
2091.00
1733.00
1580.00
1303.00
1428.00
1445.00
1508.00
1506.00
1528.00
1509.00
1437.00
1496.00
1545.00
1422.00
1457.00
1490.00
1546.00
1519.00
1454.00
1548.00
1588.00
1540.00
1521.00
1566.00
1466.00
1561.00
1546.00
1629.00
1562.00
1498.00
1597.00
1673.00
1629.00
1567.00
1658.00
1572.00
1583.00
1762.00
1637.00
1769.00
1698.00
1704.00
1724.00
1748.00
1777.00
1772.00
1741.00
1783.00
1837.00
1798.00
1824.00
1862.00
1869.00
1757.00
1686.00
1722.00
1627.00
1607.00
1546.00
1635.00
1555.00
1467.00
1503.00
1519.00
1573.00
1504.00
1596.00
1480.00
1523.00
1467.00
1567.00
1463.00
1463.00
1514.00
1445.00
1538.00
1647.00
1490.00
1370.00
1351.00
1531.00
1521.00
1533.00
1583.00
1557.00
1509.00
1513.00
1624.00
1560.00
1455.00
1513.00
1533.00
1543.00
1531.00
1528.00
1365.00
1440.00
1485.00
1490.00
1460.00
1456.00
1572.00
1528.00
1513.00
1490.00
1561.00
1572.00
1369.00
1596.00
1419.00
1470.00
1430.00
1615.00
1521.00
1484.00
1463.00
1538.00
1388.00
1501.00
1490.00
1454.00
1413.00
1428.00
1462.00
1445.00
1519.00
1582.00
1656.00
1483.00
1506.00
1605.00
1593.00
1502.00
1646.00
1533.00
1545.00
1483.00
1609.00
1498.00
1469.00
1401.00
1504.00
1440.00
1473.00
1483.00
1483.00
1483.00
1485.00
1533.00
1357.00
1466.00
1430.00
1483.00
1393.00
1444.00
1607.00
1867.00
1993.00
2361.00
2510.00
2568.00
2366.00
2086.00
1674.00
1374.00
1370.00
1336.00
1440.00
1312.00
1393.00
1469.00
1388.00
1497.00
1492.00
1450.00
1492.00
1439.00
1430.00
1308.00
1443.00
1440.00
1441.00
1309.00
1406.00
1374.00
1468.00
1569.00
1628.00
1443.00
1514.00
1432.00
1462.00
1401.00
1485.00
1544.00
1544.00
1538.00
1583.00
1588.00
1595.00
1624.00
1572.00
1608.00
1569.00
1658.00
1759.00
1666.00
1664.00
1762.00
1762.00
1739.00
1709.00
1679.00
1665.00
1555.00
1673.00
1665.00
1684.00
1565.00
1548.00
1578.00
1445.00
1488.00
1535.00
1460.00
1428.00
1457.00
1535.00
1285.00
1413.00
1496.00
1437.00
1373.00
1383.00
1455.00
1382.00
1365.00
1490.00
1311.00
1315.00
1397.00
1526.00
1338.00
1379.00
1366.00
1469.00
1323.00
1466.00
1467.00
1413.00
1377.00
1457.00
1508.00
1406.00
1424.00
1433.00
1468.00
1369.00
1469.00
1427.00
1366.00
1331.00
1419.00
1453.00
1333.00
1351.00
1437.00
1415.00
1377.00
1312.00
1417.00
1381.00
1415.00
1437.00
1313.00
1383.00
1374.00
1441.00
1312.00
1361.00
1443.00
1457.00
1413.00
1374.00
1328.00
1287.00
1353.00
1407.00
1406.00
1379.00
1422.00
1480.00
1424.00
1323.00
1312.00
1477.00
1411.00
1535.00
1521.00
1454.00
1470.00
1504.00
1513.00
1452.00
1373.00
1466.00
1443.00
1393.00
1344.00
1392.00
1253.00
1310.00
1392.00
1406.00
1388.00
1401.00
1326.00
1370.00
1381.00
1519.00
1406.00
1366.00
1330.00
1455.00
1580.00
1852.00
2152.00
2328.00
2435.00
2435.00
2152.00
1854.00
1393.00
1248.00
1251.00
1258.00
1239.00
1430.00
1330.00
1276.00
1353.00
1370.00
1366.00
1267.00
1302.00
1236.00
1343.00
1305.00
1430.00
1317.00
1352.00
1323.00
1406.00
1213.00
1370.00
1440.00
1455.00
1397.00
1312.00
1273.00
1336.00
1292.00
1383.00
1406.00
1395.00
1381.00
1566.00
1463.00
1419.00
1545.00
1582.00
1580.00
1483.00
1468.00
1464.00
1546.00
1689.00
1665.00
1597.00
1637.00
1646.00
1691.00
1478.00
1538.00
1548.00
1533.00
1557.00
1538.00
1496.00
1351.00
1419.00
1377.00
1330.00
1265.00
1309.00
1323.00
1275.00
1287.00
1260.00
1237.00
1239.00
1262.00
1366.00
1215.00
1343.00
1308.00
1387.00
1204.00
1268.00
1258.00
1328.00
1353.00
1385.00
1370.00
1362.00
1276.00
1370.00
1268.00
1204.00
1188.00
1213.00
1236.00
1276.00
1251.00
1251.00
1117.00
1263.00
1383.00
1201.00
1311.00
1276.00
1393.00
1300.00
1362.00
1365.00
1228.00
1122.00
1162.00
1213.00
1278.00
1374.00
1262.00
1289.00
1216.00
1267.00
1224.00
1285.00
1331.00
1385.00
1302.00
1275.00
1303.00
1393.00
1213.00
1196.00
1228.00
1383.00
1326.00
1319.00
1236.00
1267.00
1249.00
1406.00
1226.00
1219.00
1201.00
1303.00
1188.00
1365.00
1246.00
1341.00
1312.00
1341.00
1335.00
1330.00
1411.00
1462.00
1494.00
1285.00
1416.00
1313.00
1362.00
1275.00
1309.00
1385.00
1279.00
1175.00
1331.00
1241.00
1319.00
1374.00
1231.00
1361.00
1122.00
1172.00
1292.00
1206.00
1417.00
1513.00
1785.00
1954.00
2174.00
2428.00
2599.00
2638.00
2438.00
2024.00
1496.00
1310.00
1237.00
1490.00
1426.00
1466.00
1527.00
1483.00
1481.00
1413.00
1317.00
1338.00
1387.00
1391.00
1531.00
1504.00
1490.00
1473.00
1557.00
1659.00
1658.00
1543.00
1514.00
1552.00
1635.00
1621.00
1735.00
1718.00
1634.00
1711.00
1622.00
1682.00
1748.00
1791.00
1894.00
1863.00
1800.00
1922.00
2001.00
1954.00
2041.00
1949.00
1803.00
1980.00
2063.00
2110.00
2047.00
2129.00
1997.00
2176.00
1978.00
2063.00
1854.00
1951.00
1897.00
2050.00
2052.00
1966.00
1897.00
1835.00
1660.00
1670.00
1768.00
1973.00
1823.00
1861.00
1671.00
1815.00
1812.00
1786.00
1788.00
1628.00
1746.00
2002.00
2039.00
1849.00
1886.00
1735.00
1739.00
1695.00
1911.00
1850.00
2075.00
2014.00
1775.00
1698.00
1750.00
1775.00
2063.00
1904.00
1890.00
1889.00
1897.00
1941.00
1906.00
2016.00
1974.00
1852.00
1874.00
1852.00
1937.00
1955.00
1934.00
2050.00
1874.00
2005.00
1943.00
1812.00
1724.00
2041.00
1897.00
1974.00
1964.00
1925.00
1860.00
1989.00
1854.00
1878.00
1809.00
1743.00
1865.00
1712.00
1683.00
1773.00
1985.00
1971.00
2043.00
2128.00
1918.00
1796.00
1878.00
1835.00
1918.00
1819.00
1825.00
1812.00
1718.00
1849.00
1808.00
1727.00
1833.00
1941.00
1929.00
1874.00
2102.00
1999.00
1786.00
1748.00
1803.00
1812.00
1877.00
1874.00
1963.00
1949.00
1943.00
1888.00
1785.00
1607.00
1884.00
1840.00
1824.00
1847.00
1730.00
1732.00
1763.00
1723.00
1870.00
1791.00
1816.00
1922.00
1966.00
2284.00
2467.00
2584.00
2725.00
2579.00
2015.00
1810.00
1531.00
1178.00
1494.00
1588.00
1595.00
1790.00
1721.00
1548.00
1462.00
1422.00
1540®ESP-ROM:esp32s3-20210327
Build:Mar 27 2021
rst:0x1 (POWERON),boot:0x8 (SPI_FAST_FLASH_BOOT)
SPIWP:0xee
mode:DIO, clock div:1
load:0x3fce3808,len:0x43c
load:0x403c9700,len:0xbec
load:0x403cc700,len:0x2a3c
entry 0x403c98d8
1070.00
780.00
900.00
1263.00
1437.00
1454.00
1366.00
1112.00
973.00
1228.00
1241.00
1289.00
1260.00
1162.00
1198.00
1099.00
1188.00
963.00
1000.00
895.00
1157.00
893.00
884.00
936.00
1151.00
1178.00
1073.00
1078.00
933.00
766.00
820.00
1117.00
1153.00
1254.00
1070.00
816.00
822.00
829.00
809.00
935.00
888.00
847.00
934.00
765.00
813.00
695.00
769.00
756.00
856.00
733.00
846.00
756.00
822.00
700.00
820.00
829.00
878.00
907.00
819.00
803.00
855.00
794.00
718.00
548.00
563.00
555.00
526.00
601.00
621.00
718.00
775.00
746.00
576.00
384.00
257.00
87.00
181.00
310.00
270.00
411.00
393.00
1025.00
1267.00
1480.00
1566.00
1063.00
578.00
328.00
143.00
101.00
190.00
193.00
343.00
233.00
282.00
182.00
183.00
416.00
535.00
582.00
607.00
451.00
450.00
346.00
342.00
423.00
710.00
705.00
755.00
772.00
723.00
692.00
576.00
658.00
774.00
625.00
944.00
944.00
883.00
917.00
815.00
883.00
755.00
1013.00
761.00
1048.00
1067.00
1085.00
873.00
700.00
1100.00
1081.00
1460.00
1162.00
1234.00
1422.00
1267.00
1300.00
1073.00
797.00
830.00
918.00
971.00
1004.00
1065.00
1050.00
1107.00
957.00
1088.00
985.00
694.00
955.00
1122.00
1025.00
971.00
828.00
756.00
829.00
1039.00
1184.00
1099.00
1082.00
891.00
1178.00
1048.00
1050.00
849.00
824.00
1078.00
846.00
939.00
1122.00
1099.00
1101.00
1099.00
939.00
1000.00
1263.00
1037.00
927.00
874.00
1215.00
1133.00
1099.00
1160.00
1192.00
1035.00
1159.00
1134.00
972.00
1007.00
905.00
1034.00
1073.00
1141.00
1159.00
909.00
794.00
1009.00
1178.00
1323.00
1403.00
1351.00
1131.00
966.00
907.00
1050.00
984.00
1056.00
1308.00
1059.00
948.00
935.00
1108.00
1251.00
1404.00
1331.00
1276.00
1216.00
1160.00
968.00
1229.00
1379.00
1254.00
1260.00
971.00
1226.00
1336.00
1524.00
1231.00
1289.00
1315.00
1217.00
1239.00
1281.00
1353.00
1428.00
1433.00
1222.00
1111.00
1008.00
1100.00
1147.00
1278.00
1008.00
1254.00
1149.00
1223.00
1641.00
1621.00
1813.00
2030.00
2267.00
2461.00
2465.00
2072.00
1719.00
1096.00
898.00
883.00
920.00
1308.00
1292.00
1325.00
1146.00
878.00
1045.00
1281.00
1192.00
1401.00
1422.00
1338.00
1267.00
1388.00
1047.00
1166.00
1127.00
1440.00
1178.00
1292.00
1582.00
1485.00
1192.00
1234.00
1188.00
1215.00
1312.00
1326.00
1231.00
1488.00
1468.00
1157.00
1166.00
1081.00
1317.00
1383.00
1289.00
1140.00
1895.00
1160.00
2584.00
2864.00
3075.00
1183.00
2811.00
2344.00
3048.00
1191.00
3075.00
2266.00
2045.00
2019.00
2568.00
2384.00
2875.00
2113.00
3060.00
2320.00
2627.00
2901.00
2524.00
2372.00
2460.00
3075.00
1666.00
2479.00
2347.00
3044.00
1188.00
2735.00
2267.00
2938.00
1018.00
3075.00
2238.00
2813.00
1303.00
3075.00
2249.00
2669.00
2017.00
3075.00
2252.00
2527.00
2774.00
2409.00
2269.00
2381.00
3028.00
1578.00
2368.00
2238.00
2944.00
1125.00
2686.00
2151.00
2841.00
936.00
3044.00
2152.00
2733.00
1146.00
3075.00
2142.00
2548.00
1268.00
2995.00
2078.00
2473.00
2613.00
2299.00
2130.00
2272.00
2905.00
1468.00
2269.00
2054.00
1512.00
932.00
2260.00
1985.00
2795.00
971.00
2874.00
1997.00
2658.00
1086.00
3075.00
2076.00
2526.00
1785.00
3004.00
2102.00
2389.00
2541.00
2319.00
2091.00
2235.00
2875.00
1718.00
2214.00
2132.00
2823.00
963.00
2458.00
2024.00
2699.00
785.00
2683.00
2012.00
2605.00
982.00
3075.00
2026.00
2479.00
1674.00
3028.00
2073.00
2361.00
2492.00
2344.00
2054.00
2194.00
2815.00
1432.00
2130.00
2047.00
2756.00
922.00
2350.00
1987.00
2679.00
707.00
2677.00
2014.00
2581.00
937.00
3050.00
1978.00
2418.00
1637.00
2938.00
1989.00
2278.00
2419.00
3052.00
2562.00
2631.00
2700.00
1513.00
2129.00
2052.00
2683.00
883.00
2249.00
1904.00
2582.00
644.00
2594.00
1874.00
2481.00
820.00
2692.00
1883.00
2348.00
1474.00
2854.00
1929.00
2223.00
2299.00
2161.00
1888.00
2030.00
1297.00
1000.00
1557.00
1949.00
2753.00
969.00
2104.00
1837.00
2567.00
619.00
2546.00
1813.00
2435.00
785.00
2733.00
1831.00
2311.00
1477.00
2846.00
1878.00
2190.00
2333.00
2489.00
1961.00
2063.00
2660.00
1567.00
1985.00
1937.00
2604.00
755.00
2164.00
1833.00
2548.00
540.00
2524.00
1798.00
2404.00
763.00
2842.00
1846.00
2303.00
1470.00
2813.00
1835.00
2144.00
2286.00
2302.00
1852.00
2002.00
2610.00
1526.00
1921.00
1892.00
2565.00
697.00
2147.00
1748.00
2458.00
510.00
2521.00
1735.00
2352.00
691.00
2792.00
1775.00
2247.00
1366.00
2627.00
1725.00
2068.00
2197.00
2397.00
1834.00
1982.00
2566.00
1365.00
1854.00
1830.00
2521.00
683.00
2126.00
1700.00
2421.00
485.00
2386.00
1718.00
2339.00
656.00
2804.00
1723.00
2206.00
1316.00
2807.00
1765.00
2091.00
2151.00
2118.00
1724.00
1909.00
2529.00
1201.00
1803.00
1759.00
2489.00
705.00
2002.00
1702.00
2408.00
436.00
2314.00
1682.00
2314.00
603.00
2746.00
1673.00
2174.00
1292.00
2736.00
1682.00
2028.00
2153.00
2330.00
1752.00
1925.00
2501.00
1163.00
1775.00
1743.00
2477.00
647.00
1993.00
1682.00
2386.00
402.00
2400.00
1637.00
2275.00
613.00
2712.00
1697.00
2178.00
1294.00
2691.00
1666.00
2012.00
2127.00
2296.00
1711.00
1891.00
2491.00
1336.00
1747.00
1744.00
2450.00
601.00
1963.00
1628.00
2348.00
376.00
2266.00
1607.00
2260.00
540.00
2700.00
1605.00
2119.00
1188.00
2747.00
1656.00
2005.00
2037.00
2105.00
1627.00
1830.00
2443.00
1198.00
1686.00
1679.00
2398.00
619.00
1911.00
1595.00
2330.00
362.00
2246.00
1569.00
2229.00
518.00
2674.00
1579.00
2091.00
1151.00
2773.00
1664.00
1997.00
1997.00
2247.00
1628.00
1835.00
24