Sample_1,Sample_2
1504,1584
1496,1665
1497,1506
1494,1485
1496,1492
1501,1494
1494,1490
1516,1433
1514,1412
1509,1370
1503,1406
1483,1422
1494,1411
1488,1377
1483,1396
1480,1379
1483,1503
1492,1415
1484,1401
1506,1402
1518,1374
1488,1383
1498,1391
1490,1391
1485,1419
1480,1582
1486,1888
1508,2161
1488,2519
1496,2612
1506,2712
1498,2279
1466,1925
1478,1548
1481,1325
1470,1306
1506,1369
1494,1379
1474,1353
1462,1365
1464,1404
1498,1415
1494,1381
1473,1373
1513,1351
1477,1355
1502,1357
1477,1362
1509,1374
1502,1429
1496,1352
1474,1404
1477,1391
1490,1344
1494,1373
1503,1370
1508,1370
1458,1383
1498,1483
1502,1424
1516,1406
1518,1379
1526,1462
1526,1391
1508,1391
1488,1383
1496,1387
1485,1428
1496,1441
1494,1473
1492,1513
1483,1582
1483,1503
1508,1580
1471,1547
1488,1592
1480,1691
1477,1634
1494,1544
1492,1424
1492,1521
1483,1529
1513,1607
1513,1577
1560,1569
1569,1508
1800,1428
2004,1514
2175,1415
2071,1404
1835,1514
1600,1456
1439,1439
1443,1463
1483,1388
1490,1391
1470,1406
1469,1381
1498,1381
1469,1381
1483,1377
1460,1377
1483,1373
1483,1374
1490,1374
1481,1370
1468,1379
1477,1374
1463,1367
1473,1388
1490,1483
1480,1393
1483,1538
1473,1433
1462,1377
1478,1411
1496,1385
1485,1365
1483,1382
1516,1391
1477,1393
1490,1437
1483,1396
1506,1391
1506,1365
1485,1365
1497,1407
1506,1401
1516,1387
1543,1416
1531,1413
1514,1402
1516,1393
1535,1395
1543,1379
1533,1381
1538,1380
1519,1391
1529,1401
1555,1411
1557,1406
1543,1430
1531,1406
1524,1411
1529,1393
1538,1388
1523,1383
1506,1391
1521,1396
1483,1392
1488,1390
1498,1388
1486,1424
1506,1379
1494,1401
1506,1428
1492,1415
1474,1409
1490,1469
1456,1422
1463,1424
1480,1488
1483,1543
1490,1441
1473,1441
1469,1412
1488,1494
1496,1484
1481,1419
1488,1422
1478,1477
1463,1404
1483,1443
1478,1417
1492,1381
1484,1393
1490,1391
1488,1401
1471,1391
1483,1390
1476,1386
1483,1411
1503,1393
1483,1439
1488,1608
1474,1727
1469,2267
1490,2465
1486,2688
1488,2729
1464,2398
1473,1920
1469,1555
1474,1311
1498,1357
1492,1415
1484,1391
1480,1375
1492,1385
1474,1388
1477,1383
1473,1388
1468,1387
1483,1388
1494,1383
1480,1531
1477,1426
1477,1416
1478,1386
1455,1370
1470,1383
1478,1445
1483,1393
1528,1412
1473,1369
1483,1383
1535,1430
1492,1401
1494,1393
1504,1386
1514,1392
1490,1411
1516,1401
1506,1468
1492,1387
1485,1516
1498,1535
1470,1483
1474,1433
1483,1469
1474,1582
1468,1513
1456,1534
1477,1523
1469,1608
1444,1584
1467,1600
1457,1600
1483,1669
1460,1480
1474,1509
1492,1565
1533,1534
1573,1494
1759,1615
1939,1582
2117,1533
2217,1518
1910,1531
1743,1476
1455,1460
1416,1460
1456,1411
1477,1369
1466,1393
1477,1433
1466,1404
1469,1391
1462,1406
1477,1404
1443,1387
1469,1383
1460,1453
1473,1402
1468,1428
1481,1417
1466,1401
1477,1402
1456,1401
1490,1387
1490,1393
1467,1428
1466,1411
1483,1411
1486,1406
1492,1416
1478,1391
1488,1404
1485,1409
1514,1402
1497,1401
1483,1411
1469,1439
1498,1484
1498,1428
1488,1428
1485,1401
1492,1401
1509,1393
1504,1393
1533,1412
1506,1411
1518,1404
1526,1441
1543,1415
1527,1428
1523,1409
1526,1456
1529,1460
1506,1428
1526,1419
1529,1428
1523,1430
1506,1427
1494,1396
1490,1462
1503,1453
1483,1401
1483,1454
1490,1469
1476,1439
1469,1406
1516,1433
1478,1453
1470,1470
1494,1535
1462,1569
1471,1564
1466,1504
1463,1535
1484,1569
1481,1557
1480,1578
1485,1533
1478,1443
1469,1433
1463,1583
1457,1540
1440,1445
1458,1485
1508,1439
1469,1484
1490,1430
1488,1393
1473,1430
1478,1412
1483,1437
1480,1531
1462,1396
1458,1442
1478,1428
1470,1456
1485,1406
1463,1492
1478,1621
1456,1821
1467,2063
1468,2460
1483,2713
1476,2875
1480,2742
1468,2362
1474,1847
1478,1508
1469,1374
1462,1390
1469,1467
1467,1445
1483,1477
1477,1506
1456,1428
1478,1413
1457,1474
1488,1477
1456,1478
1473,1432
1529,1432
1474,1379
1471,1419
1478,1492
1474,1463
1480,1480
1485,1456
1478,1513
1506,1441
1478,1445
1514,1506
1494,1543
1474,1508
1483,1466
1477,1541
1474,1498
1490,1544
1478,1567
1478,1583
1441,1504
1468,1592
1480,1583
1473,1619
1445,1580
1483,1590
1445,1642
1474,1632
1460,1671
1477,1711
1456,1727
1470,1694
1492,1783
1498,1752
1567,1765
1794,1810
1902,1743
2091,1682
2085,1686
1884,1664
1709,1709
1469,1646
1411,1597
1437,1531
1460,1712
1437,1506
1463,1596
1469,1575
1463,1547
1444,1439
1478,1494
1473,1531
1468,1478
1443,1543
1463,1521
1437,1529
1452,1543
1463,1578
1455,1454
1445,1494
1473,1401
1453,1508
1467,1474
1462,1463
1462,1454
1483,1494
1467,1508
1474,1483
1490,1492
1477,1437
1477,1443
1480,1455
1490,1611
1508,1527
1474,1502
1498,1445
1504,1498
1494,1453
1492,1469
1509,1419
1503,1503
1514,1545
1529,1595
1553,1629
1526,1488
1521,1506
1508,1531
1509,1624
1506,1483
1519,1483
1527,1514
1509,1387
1519,1424
1529,1473
1514,1533
1508,1471
1506,1445
1478,1453
1478,1531
1486,1432
1494,1468
1497,1452
1473,1490
1453,1531
1480,1557
1469,1516
1468,1474
1460,1473
1469,1440
1452,1478
1455,1412
1480,1509
1457,1540
1463,1488
1466,1469
1455,1502
1456,1642
1463,1552
1492,1682
1456,1689
1455,1490
1473,1607
1488,1578
1467,1656
1456,1546
1470,1573
1478,1483
1466,1445
1478,1432
1478,1478
1460,1508
1460,1441
1453,1445
1456,1365
1460,1411
1452,1370
1477,1464
1469,1407
1474,1454
1470,1401
1463,1488
1455,1498
1467,1540
1478,1770
1483,2016
1470,2302
1477,2631
1483,2916
1441,2859
1466,2349
1462,1968
1454,1569
1464,1353
1460,1377
1492,1428
1462,1473
1483,1454
1460,1422
1476,1488
1483,1403
1488,1416
1514,1422
1490,1426
1494,1343
1486,1455
1504,1455
1492,1428
1466,1375
1473,1422
1453,1361
1453,1404
1474,1445
1468,1457
1468,1427
1483,1470
1483,1553
1462,1588
1454,1585
1468,1503
1471,1508
1445,1513
1441,1494
1469,1468
1474,1568
1516,1546
1557,1521
1624,1565
1837,1509
2089,1508
2082,1714
2014,1712
1732,1683
1466,1694
1413,1641
1416,1705
1439,1686
1445,1658
1463,1785
1447,1709
1456,1647
1473,1746
1462,1711
1462,1711
1453,1675
1453,1676
1457,1560
1452,1610
1460,1519
1463,1538
1456,1443
1467,1428
1467,1441
1445,1498
1460,1365
1483,1458
1469,1406
1460,1488
1468,1462
1476,1483
1483,1412
1478,1374
1492,1445
1485,1514
1483,1478
1473,1514
1508,1428
1477,1490
1490,1430
1490,1352
1503,1381
1518,1508
1518,1375
1557,1393
1514,1406
1488,1393
1529,1437
1540,1440
1521,1443
1521,1393
1540,1401
1535,1478
1508,1391
1492,1428
1521,1428
1504,1416
1508,1422
1521,1401
1504,1428
1498,1419
1485,1401
1494,1456
1492,1473
1483,1415
1477,1377
1483,1343
1468,1391
1463,1340
1466,1417
1468,1452
1470,1462
1477,1456
1490,1468
1473,1453
1480,1390
1478,1343
1483,1416
1469,1406
1463,1362
1473,1462
1477,1377
1468,1369
1477,1366
1483,1325
1464,1388
1478,1365
1490,1385
1490,1453
1490,1441
1483,1457
1488,1616
1463,1467
1474,1483
1504,1437
1480,1492
1494,1440
1474,1476
1492,1496
1490,1455
1490,1470
1480,1370
1469,1477
1455,1392
1490,1437
1492,1430
1503,1445
1474,1379
1494,1342
1478,1383
1460,1393
1474,1365
1494,1441
1478,1445
1496,1387
1490,1377
1503,1335
1503,1338
1496,1432
1521,1535
1508,1777
1494,2113
1529,2352
1529,2660
1497,2730
1492,2468
1528,2095
1480,1697
1494,1386
1490,1276
1492,1365
1488,1351
1477,1374
1490,1379
1490,1406
1488,1361
1508,1361
1477,1328
1484,1363
1477,1365
1478,1365
1483,1341
1490,1357
1488,1330
1504,1383
1488,1391
1528,1361
1698,1361
1860,1388
2063,1409
2312,1339
2228,1339
1875,1477
1615,1413
1413,1473
1437,1521
1460,1462
1488,1383
1488,1483
1502,1437
1471,1480
1468,1432
1477,1406
1460,1430
1464,1533
1478,1432
1492,1580
1478,1545
1490,1664
1483,1607
1477,1648
1490,1540
1487,1529
1490,1634
1466,1592
1492,1596
1504,1592
1483,1635
1488,1670
1496,1600
1492,1590
1490,1628
1490,1480
1516,1528
1514,1456
1504,1483
1516,1396
1516,1428
1531,1440
1531,1391
1529,1365
1526,1344
1526,1367
1521,1349
1535,1355
1538,1333
1535,1343
1544,1395
1555,1521
1529,1480
1543,1386
1535,1349
1544,1338
1531,1370
1535,1361
1543,1430
1506,1428
1538,1393
1538,1342
1543,1351
1526,1331
1523,1361
1519,1363
1503,1406
1498,1393
1488,1351
1506,1370
1496,1413
1484,1406
1494,1379
1502,1365
1490,1342
1519,1351
1509,1390
1477,1419
1492,1365
1504,1355
1490,1390
1497,1365
1503,1352
1504,1365
1506,1416
1494,1377
1508,1401
1513,1426
1508,1403
1496,1379
1508,1369
1503,1345
1469,1357
1504,1361
1488,1370
1498,1355
1492,1401
1516,1366
1521,1366
1488,1361
1490,1341
1512,1383
1477,1468
1488,1374
1490,1381
1488,1365
1492,1339
1535,1344
1498,1369
1478,1477
1477,1473
1496,1434
1504,1516
1485,1440
1504,1374
1501,1370
1492,1428
1508,1433
1508,1424
1506,1406
1496,1361
1524,1341
1512,1366
1504,1374
1503,1386
1504,1355
1523,1365
1541,1369
1529,1357
1528,1362
1509,1363
1492,1365
1498,1352
1513,1371
1512,1428
1494,1504
1513,1674
1496,1943
1483,2296
1477,2519
1496,2710
1506,2546
1496,2194
1478,1697
1484,1383
1492,1268
1483,1325
1503,1377
1485,1366
1504,1338
1545,1352
1691,1343
1971,1351
2204,1338
2493,1348
2330,1343
1906,1357
1708,1339
1484,1377
1411,1373
1454,1367
1477,1361
1467,1365
1468,1357
1483,1365
1490,1355
1480,1362
1468,1353
1478,1369
1473,1363
1483,1369
1484,1383
1483,1365
1466,1377
1478,1445
1506,1492
1492,1439
1466,1431
1484,1393
1488,1383
1492,1595
1490,1508
1490,1516
1483,1445
1471,1483
1490,1453
1490,1527
1513,1596
1492,1547
1508,1478
1529,1523
1513,1642
1502,1566
1509,1555
1523,1591
1503,1528
1518,1466
1528,1478
1518,1566
1526,1466
1533,1397
1538,1469
1531,1382
1535,1387
1527,1361
1538,1358
1513,1365
1543,1344
1533,1369
1529,1365
1521,1377
1524,1341
1521,1383
1504,1377
1506,1365
1518,1370
1514,1370
1508,1404
1504,1365
1496,1377
1492,1365
1492,1361
1485,1392
1494,1377
1485,1377
1503,1374
1488,1359
1470,1382
1467,1373
1473,1365
1494,1370
1468,1379
1480,1392
1496,1411
1508,1375
1492,1374
1508,1365
1485,1379
1487,1400
1490,1379
1498,1379
1494,1377
1485,1379
1485,1375
1478,1377
1480,1379
1492,1362
1490,1380
1463,1379
1490,1374
1467,1374
1498,1411
1457,1402
1503,1388
1502,1377
1504,1377
1513,1383
1494,1379
1503,1383
1466,1387
1456,1387
1483,1381
1469,1392
1483,1381
1492,1380
1483,1377
1483,1404
1488,1381
1498,1393
1468,1390
1469,1381
1494,1411
1483,1428
1498,1413
1506,1430
1492,1413
1534,1415
1496,1432
1513,1469
1513,1422
1514,1433
1496,1430
1513,1374
1490,1409
1492,1393
1478,1390
1483,1383
1498,1387
1474,1390
1488,1383
1490,1388
1490,1393
1483,1387
1502,1404
1478,1393
1483,1401
1478,1379
1469,1379
1469,1387
1456,1416
1455,1624
1463,1922
1480,2323
1523,2605
1664,2841
1929,2539
2161,2249
2460,1694
2394,1454
1997,1313
1753,1353
1427,1386
1387,1381
1464,1361
1490,1374
1474,1377
1453,1387
1454,1379
1455,1373
1453,1367
1441,1396
1445,1379
1445,1393
1469,1377
1456,1377
1473,1370
1468,1377
1455,1383
1462,1379
1469,1379
1478,1407
1468,1406
1490,1388
1494,1433
1463,1433
1463,1419
1473,1385
1476,1391
1480,1445
1490,1431
1494,1439
1476,1468
1478,1443
1492,1413
1473,1415
1483,1445
1473,1437
1478,1531
1494,1583
1508,1521
1516,1566
1514,1548
1509,1560
1519,1590
1521,1519
1514,1604
1492,1523
1521,1516
1524,1506
1521,1544
1516,1548
1540,1478
1516,1483
1509,1440
1490,1415
1497,1393
1477,1393
1480,1377
1474,1383
1490,1415
1467,1409
1485,1419
1477,1440
1469,1434
1455,1406
1478,1367
1469,1383
1470,1390
1466,1385
1456,1377
1462,1391
1463,1396
1484,1380
1477,1393
1469,1387
1474,1409
1483,1383
1469,1388
1455,1396
1445,1393
1490,1388
1470,1422
1473,1393
1463,1404
1460,1396
1452,1409
1468,1390
1467,1415
1468,1396
1464,1396
1473,1383
1469,1401
1457,1396
1467,1393
1470,1393
1457,1406
1454,1403
1468,1393
1464,1404
1453,1432
1462,1419
1445,1401
1469,1396
1434,1400
1444,1393
1440,1402
1473,1409
1478,1393
1492,1393
1468,1401
1468,1415
1469,1393
1476,1406
1456,1396
1463,1417
1480,1415
1468,1396
1454,1417
1457,1402
1473,1401
1478,1437
1469,1424
1483,1416
1477,1424
1483,1528
1483,1467
1497,1494
1490,1457
1469,1468
1483,1432
1473,1485
1468,1494
1477,1463
1473,1413
1474,1433
1452,1411
1455,1401
1456,1415
1428,1411
1453,1416
1453,1396
1462,1413
1462,1419
1445,1415
1462,1406
1453,1416
1460,1424
1519,1401
1529,1415
1800,1396
2068,1402
2314,1406
2302,1452
1982,1548
1739,1761
1437,2115
1365,2519
1407,2739
1443,2650
1428,2450
1431,2030
1466,1569
1445,1393
1443,1328
1455,1383
1439,1393
1456,1400
1440,1411
1424,1401
1456,1401
1432,1386
1441,1390
1445,1379
1445,1411
1442,1409
1463,1396
1445,1386
1452,1415
1460,1390
1476,1411
1477,1388
1454,1419
1467,1396
1469,1406
1456,1406
1463,1485
1468,1406
1488,1443
1470,1422
1488,1424
1477,1462
1480,1463
1483,1462
1498,1424
1490,1373
1492,1567
1506,1540
1513,1478
1502,1494
1508,1521
1483,1518
1518,1519
1506,1615
1508,1637
1516,1584
1502,1607
1490,1687
1494,1684
1503,1636
1473,1642
1473,1593
1469,1567
1468,1583
1476,1592
1463,1555
1469,1481
1445,1527
1430,1469
1469,1560
1470,1494
1453,1569
1441,1474
1445,1415
1441,1366
1468,1393
1462,1406
1480,1391
1452,1453
1457,1406
1441,1396
1443,1387
1440,1463
1469,1443
1456,1413
1445,1409
1444,1393
1457,1387
1453,1468
1460,1477
1462,1444
1463,1428
1478,1393
1445,1393
1456,1382
1463,1387
1457,1440
1477,1457
1462,1428
1462,1419
1433,1391
1457,1406
1462,1419
1433,1445
1443,1478
1443,1417
1463,1402
1447,1426
1478,1393
1473,1424
1455,1406
1462,1416
1457,1395
1473,1386
1453,1411
1432,1412
1439,1411
1432,1432
1452,1424
1456,1433
1453,1413
1462,1434
1454,1415
1476,1393
1468,1401
1470,1401
1464,1415
1488,1406
1476,1415
1492,1411
1474,1413
1478,1393
1483,1458
1473,1441
1483,1426
1455,1419
1445,1416
1454,1432
1445,1424
1441,1430
1455,1437
1453,1444
1474,1460
1454,1430
1443,1444
1432,1464
1452,1483
1445,1508
1443,1466
1444,1473
1430,1469
1445,1518
1456,1390
1473,1437
1516,1406
1718,1411
1975,1393
2188,1474
2263,1444
2004,1413
1723,1424
1467,1409
1391,1406
1424,1411
1424,1419
1443,1409
1419,1403
1453,1426
1430,1490
1443,1709
1439,1997
1441,2308
1419,2571
1428,2662
1415,2624
1424,2235
1441,1711
1457,1419
1441,1312
1437,1380
1462,1424
1424,1387
1455,1383
1440,1406
1462,1404
1440,1396
1462,1387
1469,1388
1483,1357
1455,1416
1445,1440
1437,1383
1445,1406
1469,1406
1466,1387
1490,1381
1470,1433
1483,1391
1496,1424
1473,1393
1474,1413
1476,1413
1496,1400
1492,1424
1519,1404
1494,1462
1504,1462
1496,1494
1509,1574
1502,1477
1497,1457
1490,1504
1492,1407
1485,1494
1483,1529
1476,1545
1480,1561
1485,1596
1471,1607
1473,1533
1480,1519
1453,1514
1473,1630
1458,1629
1468,1664
1444,1693
1431,1600
1441,1544
1433,1559
1453,1543
1457,1492
1439,1514
1453,1580
1439,1478
1473,1445
1443,1492
1445,1429
1456,1403
1480,1424
1441,1415
1444,1424
1433,1374
1466,1442
1445,1411
1473,1396
1456,1397
1431,1406
1445,1404
1440,1393
1445,1406
1441,1460
1445,1431
1441,1406
1443,1404
1456,1383
1468,1407
1455,1406
1434,1419
1437,1396
1443,1413
1432,1422
1474,1411
1458,1424
1452,1402
1443,1406
1428,1411
1441,1385
1439,1413
1428,1404
1452,1387
1445,1406
1456,1424
1453,1412
1469,1478
1445,1463
1428,1468
1428,1430
1441,1391
1433,1404
1437,1401
1456,1419
1467,1395
1456,1416
1483,1406
1476,1417
1463,1401
1473,1409
1483,1406
1483,1409
1458,1415
1480,1419
1477,1411
1466,1428
1445,1415
1473,1432
1456,1411
1453,1431
1455,1422
1445,1412
1433,1401
1432,1415
1428,1419
1462,1416
1460,1406
1490,1419
1467,1445
1437,1503
1406,1538
1419,1488
1429,1508
1415,1441
1430,1441
1444,1424
1483,1406
1531,1441
1951,1417
2024,1396
2233,1411
2167,1416
1924,1412
1686,1411
1456,1411
1374,1417
1417,1419
1441,1406
1419,1428
1453,1419
1432,1393
1416,1411
1441,1406
1411,1406
1417,1592
1430,1778
1433,2104
1440,2409
1429,2611
1428,2679
1432,2284
1432,1934
1445,1559
1430,1343
1462,1351
1428,1490
1433,1417
1443,1415
1437,1383
1456,1379
1445,1404
1453,1393
1439,1403
1454,1385
1466,1387
1452,1388
1444,1393
1468,1393
1458,1396
1473,1396
1453,1422
1494,1406
1498,1404
1488,1388
1490,1416
1477,1406
1490,1411
1483,1400
1494,1406
1516,1393
1490,1445
1483,1428
1492,1424
1483,1412
1490,1455
1484,1422
1490,1463
1477,1456
1478,1565
1494,1490
1487,1445
1452,1432
1463,1509
1445,1483
1462,1557
1466,1608
1455,1553
1463,1498
1409,1526
1428,1560
1456,1516
1453,1569
1442,1591
1473,1660
1453,1483
1443,1441
1452,1504
1468,1453
1466,1428
1440,1478
1424,1415
1455,1411
1440,1401
1457,1430
1474,1411
1433,1396
1441,1406
1441,1406
1453,1413
1462,1404
1440,1411
1469,1404
1467,1413
1443,1393
1462,1400
1457,1396
1440,1403
1440,1412
1460,1424
1468,1406
1442,1404
1452,1417
1452,1403
1437,1445
1443,1417
1441,1419
1483,1403
1445,1391
1478,1406
1443,1416
1445,1402
1431,1409
1440,1411
1457,1412
1452,1396
1445,1417
1456,1417
1456,1419
1455,1417
1458,1419
1473,1417
1455,1411
1424,1413
1443,1415
1433,1406
1445,1415
1441,1417
1477,1415
1462,1406
1470,1407
1464,1413
1477,1406
1483,1411
1477,1416
1485,1428
1478,1412
1473,1426
1496,1417
1473,1417
1463,1406
1466,1424
1473,1419
1468,1416
1441,1415
1433,1419
1454,1393
1473,1416
1428,1419
1437,1428
1433,1428
1437,1444
1433,1432
1467,1428
1433,1416
1440,1428
1439,1430
1445,1430
1477,1437
1492,1452
1557,1442
1762,1416
2071,1428
2309,1428
2376,1401
2012,1416
1725,1469
1462,1411
1383,1429
1406,1426
1445,1419
1440,1424
1432,1416
1430,1419
1443,1419
1440,1416
1443,1409
1452,1419
1457,1424
1454,1557
1422,1700
1437,1980
1463,2302
1453,2573
1460,2703
1439,2486
1440,2063
1441,1646
1455,1362
1464,1315
1445,1391
1437,1424
1470,1406
1467,1404
1453,1409
1469,1406
1463,1402
1474,1409
1466,1393
1468,1411
1468,1393
1478,1412
1463,1401
1483,1409
1492,1411
1478,1409
1488,1409
1492,1402
1502,1406
1492,1406
1506,1406
1494,1401
1497,1411
1508,1407
1519,1428
1497,1416
1516,1476
1521,1433
1514,1424
1490,1419
1478,1422
1490,1412
1490,1428
1480,1419
1488,1444
1474,1458
1466,1488
1463,1502
1456,1471
1441,1477
1437,1485
1452,1455
1462,1521
1453,1468
1445,1634
1440,1506
1455,1529
1458,1506
1463,1513
1477,1496
1424,1455
1441,1519
1439,1490
1468,1463
1441,1430
1445,1411
1452,1429
1445,1409
1445,1430
1467,1422
1470,1406
1440,1411
1430,1424
1443,1440
1454,1416
1456,1406
1453,1415
1455,1413
1441,1415
1463,1419
1463,1424
1440,1415
1457,1416
1455,1415
1469,1411
1430,1411
1445,1424
1453,1424
1468,1413
1433,1413
1452,1424
1456,1406
1440,1428
1445,1424
1453,1419
1432,1406
1441,1419
1440,1424
1455,1424
1443,1428
1433,1430
1454,1428
1473,1406
1469,1413
1443,1413
1456,1416
1443,1411
1443,1415
1471,1426
1484,1428
1469,1415
1478,1424
1492,1422
1470,1419
1454,1426
1488,1427
1460,1426
1478,1431
1469,1428
1456,1428
1466,1413
1456,1416
1431,1416
1456,1413
1463,1416
1441,1419
1437,1429
1440,1417
1437,1430
1478,1454
1463,1444
1469,1430
1441,1432
1452,1441
1452,1437
1428,1439
1452,1441
1504,1437
1548,1443
1768,1416
1963,1445
2188,1437
2127,1432
1798,1432
1621,1424
1409,1432
1400,1428
1424,1433
1432,1419
1429,1416
1432,1430
1445,1422
1453,1430
1417,1419
1440,1426
1432,1424
1433,1413
1428,1415
1409,1430
1432,1456
1419,1557
1445,1877
1441,2254
1443,2471
1415,2710
1457,2539
1455,2085
1466,1676
1450,1417
1469,1344
1441,1400
1463,1424
1466,1404
1485,1393
1483,1406
1468,1419
1473,1393
1471,1401
1428,1401
1469,1411
1485,1415
1466,1409
1488,1433
1492,1415
1506,1426
1483,1413
1490,1411
1497,1411
1516,1424
1494,1419
1514,1428
1508,1424
1506,1428
1498,1413
1498,1419
1506,1416
1490,1426
1488,1424
1504,1429
1473,1419
1473,1429
1466,1428
1483,1456
1473,1453
1460,1476
1480,1457
1441,1437
1440,1433
1455,1494
1445,1573
1439,1504
1460,1531
1455,1534
1445,1469
1433,1508
1442,1519
1457,1534
1445,1460
1439,1529
1464,1490
1437,1480
1460,1467
1428,1468
1473,1430
1462,1419
1469,1429
1453,1431
1455,1422
1431,1430
1460,1430
1481,1430
1460,1419
1452,1424
1455,1426
1440,1419
1443,1422
1440,1430
1453,1413
1460,1437
1454,1419
1460,1432
1466,1411
1456,1428
1473,1411
1483,1428
1442,1426
1452,1431
1430,1419
1460,1411
1445,1406
1445,1424
1439,1440
1455,1419
1460,1430
1445,1433
1445,1440
1429,1422
1444,1417
1460,1426
1453,1444
1441,1428
1466,1428
1469,1422
1467,1428
1443,1428
1476,1437
1468,1433
1455,1429
1458,1419
1492,1419
1485,1422
1478,1426
1457,1428
1477,1431
1457,1419
1463,1428
1467,1430
1453,1437
1440,1416
1457,1427
1452,1432
1443,1424
1445,1439
1473,1426
1460,1428
1443,1433
1440,1437
1458,1439
1455,1432
1443,1433
1455,1455
1440,1453
1463,1439
1496,1445
1535,1457
1733,1444
1889,1442
2075,1445
2102,1443
1800,1443
1637,1437
1424,1443
1382,1432
1411,1431
1441,1431
1445,1440
1431,1428
1450,1433
1433,1430
1441,1441
1422,1409
1430,1437
1445,1430
1428,1430
1422,1428
1443,1457
1437,1444
1440,1566
1437,1733
1443,2134
1441,2348
1443,2546
1456,2451
1453,2098
1452,1656
1441,1470
1466,1374
1462,1381
1445,1426
1463,1417
1468,1411
1452,1411
1445,1411
1480,1413
1477,1424
1478,1402
1470,1426
1484,1417
1469,1417
1476,1417
1504,1422
1498,1417
1494,1416
1509,1419
1506,1440
1512,1419
1494,1432
1509,1430
1498,1412
1509,1406
1485,1417
1488,1416
1488,1428
1492,1439
1498,1431
1486,1439
1478,1440
1471,1424
1470,1434
1445,1433
1437,1437
1457,1440
1473,1433
1469,1469
1460,1473
1468,1488
1445,1519
1439,1452
1467,1445
1473,1474
1463,1473
1439,1473
1430,1462
1430,1557
1445,1433
1437,1535
1445,1492
1439,1445
1452,1439
1439,1433
1470,1455
1440,1433
1445,1429
1441,1442
1469,1441
1443,1426
1453,1441
1466,1433
1445,1432
1445,1428
1462,1437
1443,1426
1439,1428
1443,1428
1452,1431
1445,1432
1444,1426
1445,1424
1445,1427
1441,1424
1445,1430
1468,1430
1441,1422
1455,1422
1466,1428
1443,1424
1443,1407
1439,1427
1442,1428
1453,1437
1437,1428
1457,1428
1441,1433
1443,1432
1452,1439
1466,1433
1440,1433
1453,1439
1455,1419
1440,1443
1455,1424
1452,1422
1455,1430
1468,1419
1476,1426
1490,1441
1492,1437
1473,1441
1462,1439
1460,1441
1473,1428
1466,1426
1468,1431
1476,1415
1462,1422
1417,1419
1457,1426
1460,1439
1440,1437
1452,1428
1440,1437
1433,1428
1433,1439
1432,1428
1457,1455
1456,1455
1437,1445
1429,1456
1428,1445
1468,1441
1498,1462
1561,1452
1621,1439
1860,1424
2053,1433
2210,1437
2000,1440
1733,1422
1485,1431
1385,1428
1386,1428
1430,1443
1432,1440
1419,1441
1441,1441
1433,1454
1441,1424
1443,1426
1445,1419
1455,1424
1426,1424
1437,1432
1439,1454
1443,1656
1445,1894
1428,2218
1442,2535
1437,2562
1426,2252
1443,1967
1430,1582
1441,1379
1437,1366
1456,1424
1456,1432
1440,1404
1456,1404
1462,1432
1478,1422
1468,1406
1478,1428
1463,1406
1462,1415
1463,1417
1504,1437
1488,1417
1503,1406
1486,1424
1477,1433
1483,1411
1488,1428
1480,1442
1492,1428
1492,1424
1519,1437
1526,1428
1508,1430
1483,1433
1506,1432
1496,1432
1484,1439
1484,1437
1494,1444
1457,1445
1463,1445
1476,1445
1469,1485
1462,1442
1428,1458
1441,1466
1455,1445
1441,1470
1445,1469
1441,1490
1441,1456
1467,1490
1460,1468
1445,1468
1441,1471
1440,1469
1445,1502
1429,1468
1455,1471
1453,1454
1463,1458
1445,1437
1453,1453
1445,1441
1445,1445
1442,1442
1453,1456
1445,1445
1445,1428
1444,1428
1453,1443
1428,1432
1440,1428
1428,1440
1456,1431
1460,1445
1463,1445
1464,1445
1452,1415
1441,1428
1457,1441
1455,1432
1433,1432
1445,1440
1433,1445
1463,1455
1433,1433
1455,1441
1437,1429
1441,1454
1441,1424
1456,1466
1445,1442
1424,1445
1428,1437
1443,1445
1437,1445
1467,1445
1456,1466
1455,1445
1440,1445
1452,1445
1462,1453
1462,1441
1466,1452
1474,1437
1462,1469
1458,1452
1444,1464
1462,1445
1463,1432
1469,1431
1494,1445
1477,1464
1457,1480
1463,1468
1466,1462
1455,1456
1490,1453
1441,1456
1483,1469
1445,1460
1445,1458
1445,1462
1473,1504
1455,1469
1433,1476
1453,1478
1443,1458
1431,1488
1457,1529
1452,1516
1437,1480
1490,1485
1531,1543
1591,1533
1875,1488
2066,1469
2231,1455
2102,1457
1803,1456
1560,1456
1403,1466
1401,1460
1445,1454
1456,1456
1428,1453
1430,1470
1443,1468
1433,1462
1441,1453
1439,1462
1452,1466
1454,1523
1431,1679
1460,1973
1445,2328
1428,2648
1429,2861
1440,2813
1457,2314
1455,1842
1476,1528
1455,1374
1460,1415
1445,1441
1480,1439
1469,1428
1462,1434
1463,1440
1467,1440
1470,1443
1466,1444
1468,1441
1492,1452
1483,1463
1503,1445
1492,1445
1480,1433
1504,1437
1513,1434
1516,1445
1506,1433
1526,1440
1534,1445
1535,1492
1508,1441
1534,1455
1504,1457
1528,1444
1521,1445
1544,1529
1531,1567
1508,1538
1508,1611
1513,1519
1508,1450
1502,1485
1488,1497
1483,1526
1471,1559
1483,1608
1477,1700
1488,1624
1474,1627
1483,1671
1483,1665
1458,1658
1474,1634
1477,1748
1473,1679
1460,1686
1494,1600
1473,1743
1490,1595
1469,1573
1484,1664
1468,1597
1481,1469
1490,1565
1490,1528
1492,1516
1481,1509
1480,1526
1477,1521
1442,1445
1490,1531
1490,1529
1488,1462
1483,1445
1467,1478
1483,1443
1474,1424
1480,1440
1508,1455
1492,1452
1473,1431
1478,1440
1490,1470
1494,1455
1488,1499
1488,1523
1470,1557
1478,1516
1485,1433
1508,1494
1474,1496
1483,1443
1483,1470
1504,1437
1492,1445
1478,1432
1483,1443
1468,1432
1478,1456
1488,1533
1514,1492
1508,1456
1519,1443
1516,1484
1502,1483
1474,1518
1508,1456
1521,1526
1519,1521
1526,1490
1494,1528
1516,1531
1502,1463
1523,1468
1516,1439
1508,1432
1487,1445
1483,1477
1496,1503
1498,1506
1519,1496
1504,1543
1494,1477
1470,1529
1498,1607
1503,1588
1483,1516
1478,1538
1474,1622
1480,1658
1492,1590
1538,1573
1565,1561
1673,1534
1980,1466
2228,1508
2352,1473
2190,1504
1848,1466
1621,1473
1444,1445
1430,1422
1503,1445
1474,1555
1462,1469
1471,1535
1469,1477
1460,1439
1452,1413
1498,1478
1494,1607
1496,1666
1503,1906
1477,2368
1508,2624
1471,2832
1492,2797
1494,2481
1508,2052
1516,1607
1506,1483
1483,1365
1487,1445
1488,1437
1504,1417
1484,1455
1504,1466
1504,1490
1513,1521
1506,1455
1521,1426
1528,1504
1513,1441
1516,1413
1514,1453
1516,1470
1518,1440
1527,1419
1533,1509
1533,1469
1521,1453
1547,1535
1534,1529
1561,1545
1540,1535
1548,1588
1546,1531
1538,1481
1555,1548
1544,1469
1544,1528
1544,1504
1543,1538
1535,1593
1513,1642
1516,1700
1528,1709
1513,1658
1514,1636
1496,1689
1492,1702
1498,1681
1518,1735
1514,1748
1506,1812
1494,1734
1497,1682
1490,1709
1502,1702
1476,1738
1496,1739
1483,1735
1492,1568
1509,1573
1531,1627
1503,1622
1492,1584
1504,1566
1496,1531
1502,1516
1506,1546
1494,1492
1483,1516
1503,1492
1506,1506
1514,1469
1514,1490
1504,1379
1498,1470
1502,1417
1490,1468
1504,1503
1516,1533
1504,1454
1497,1443
1498,1471
1496,1431
1518,1456
1504,1387
1514,1490
1473,1433
1498,1464
1508,1490
1503,1523
1494,1503
1516,1490
1497,1469
1492,1377
1484,1424
1527,1447
1506,1533
1502,1506
1509,1494
1513,1490
1492,1441
1513,1437
1518,1445
1518,1514
1533,1478
1529,1488
1531,1492
1521,1462
1521,1416
1526,1445
1513,1445
1492,1427
1504,1406
1508,1452
1492,1514
1499,1440
1498,1494
1516,1473
1492,1469
1494,1462
1503,1591
1477,1531
1457,1498
1492,1516
1498,1540
1494,1569
1469,1597
1494,1514
1496,1611
1540,1483
1686,1513
1961,1544
2186,1483
2347,1440
2352,1393
1946,1406
1722,1392
1477,1406
1428,1457
1444,1437
1466,1521
1469,1440
1473,1430
1470,1508
1474,1415
1478,1417
1490,1381
1485,1490
1483,1508
1490,1844
1463,2024
1485,2333
1473,2599
1483,2733
1484,2596
1488,2215
1492,1753
1503,1518
1490,1315
1488,1353
1483,1426
1480,1391
1494,1401
1494,1406
1488,1413
1502,1352
1513,1365
1513,1393
1485,1391
1494,1424
1514,1406
1516,1415
1512,1377
1519,1338
1516,1469
1506,1401
1504,1406
1526,1393
1533,1415
1533,1383
1526,1474
1533,1417
1535,1468
1541,1401
1531,1432
1526,1504
1531,1503
1536,1462
1527,1430
1512,1565
1508,1474
1521,1490
1518,1513
1492,1440
1508,1473
1484,1543
1483,1541
1488,1617
1474,1697
1508,1681
1485,1716
1492,1605
1494,1562
1478,1694
1513,1705
1490,1686
1490,1643
1488,1669
1478,1445
1483,1503
1483,1543
1466,1543
1478,1474
1506,1508
1477,1498
1477,1417
1477,1409
1469,1366
1464,1404
1488,1424
1490,1406
1481,1417
1463,1383
1490,1349
1492,1404
1445,1437
1416,1370
1488,1366
1462,1401
1477,1379
1476,1374
1466,1419
1488,1419
1474,1403
1437,1411
1454,1379
1456,1379
1483,1373
1514,1373
1490,1452
1506,1385
1484,1426
1466,1404
1478,1387
1506,1359
1488,1383
1477,1379
1437,1377
1494,1422
1492,1393
1504,1409
1485,1377
1492,1362
1494,1406
1504,1430
1488,1391
1485,1424
1478,1439
1490,1427
1533,1390
1534,1437
1503,1385
1498,1381
1490,1373
1474,1387
1478,1387
1496,1393
1478,1412
1478,1401
1485,1385
1485,1387
1483,1383
1468,1415
1457,1403
1478,1440
1454,1419
1443,1419
1473,1406
1428,1428
1480,1428
1483,1473
1486,1538
1518,1590
1518,1468
1816,1407
2117,1365
2246,1377
2463,1396
2172,1413
1790,1366
1548,1401
1379,1403
1424,1388
1452,1382
1440,1373
1412,1386
1428,1393
1439,1387
1455,1391
1480,1385
1470,1379
1483,1385
1498,1404
1470,1494
1455,1684
1473,1967
1463,2320
1434,2573
1445,2728
1464,2590
1445,2166
1430,1746
1407,1432
1428,1305
1441,1351
1471,1381
1494,1373
1492,1365
1474,1365
1477,1369
1480,1365
1477,1365
1477,1370
1494,1400
1490,1391
1478,1379
1483,1361
1506,1365
1490,1370
1488,1379
1490,1370
1492,1391
1502,1377
1506,1387
1506,1385
1498,1385
1504,1416
1504,1383
1508,1508
1513,1424
1503,1406
1513,1377
1492,1373
1502,1416
1490,1390
1514,1406
1488,1464
1496,1437
1494,1467
1477,1521
1463,1445
1453,1457
1460,1506
1452,1619
1473,1656
1473,1540
1484,1544
1452,1566
1442,1538
1440,1580
1455,1540
1463,1531
1477,1483
1469,1516
1452,1561
1470,1445
1452,1521
1455,1502
1437,1426
1467,1391
1468,1407
1460,1401
1456,1388
1444,1379
1469,1383
1470,1391
1445,1413
1483,1390
1456,1390
1462,1393
1453,1365
1463,1382
1453,1379
1478,1422
1462,1370
1452,1402
1433,1386
1454,1373
1440,1375
1445,1391
1454,1406
1454,1393
1445,1379
1462,1382
1437,1393
1466,1432
1462,1431
1445,1411
1470,1379
1433,1381
1445,1441
1462,1403
1467,1400
1466,1377
1439,1383
1440,1379
1466,1406
1462,1388
1469,1400
1455,1379
1433,1391
1452,1385
1492,1390
1483,1393
1469,1393
1463,1392
1473,1401
1469,1419
1469,1404
1477,1401
1490,1386
1471,1388
1488,1390
1478,1385
1478,1392
1460,1401
1445,1393
1466,1388
1428,1406
1437,1404
1430,1388
1462,1440
1452,1411
1441,1401
1440,1393
1431,1393
1422,1424
1439,1415
1437,1456
1439,1428
1454,1393
1502,1424
1552,1433
1785,1422
2066,1415
2326,1409
2375,1416
2152,1411
1813,1395
1516,1402
1365,1406
1385,1406
1433,1387
1432,1406
1424,1381
1437,1393
1453,1393
1416,1411
1409,1422
1417,1391
1419,1411
1442,1473
1445,1548
1432,1744
1441,2204
1441,2421
1433,2726
1432,2654
1430,2381
1439,1878
1452,1540
1437,1353
1440,1353
1439,1393
1453,1393
1458,1387
1463,1379
1470,1380
1454,1387
1441,1388
1460,1381
1478,1387
1483,1381
1480,1379
1481,1379
1463,1386
1456,1388
1469,1393
1458,1388
1473,1393
1469,1387
1508,1396
1490,1387
1485,1396
1513,1393
1504,1417
1508,1401
1513,1404
1513,1390
1488,1401
1483,1424
1480,1397
1494,1415
1481,1419
1478,1411
1478,1406
1469,1473
1453,1567
1440,1477
1457,1504
1463,1544
1468,1540
1426,1509
1437,1503
1419,1582
1430,1535
1466,1516
1430,1643
1416,1620
1428,1622
1445,1538
1428,1474
1428,1456
1432,1441
1440,1508
1426,1474
1432,1462
1455,1433
1437,1419
1440,1419
1427,1381
1437,1403
1452,1406
1462,1406
1467,1392
1443,1406
1427,1393
1415,1393
1437,1387
1430,1432
1428,1406
1445,1416
1453,1406
1428,1401
1452,1393
1453,1404
1471,1426
1437,1463
1453,1419
1437,1415
1415,1409
1401,1382
1445,1381
1426,1401
1441,1406
1454,1400
1440,1409
1416,1401
1428,1406
1432,1396
1424,1411
1437,1411
1437,1406
1441,1457
1440,1523
1441,1456
1433,1426
1433,1401
1417,1393
1428,1406
1439,1415
1441,1415
1424,1409
1463,1402
1443,1406
1477,1406
1460,1406
1476,1406
1428,1409
1432,1415
1442,1393
1470,1406
1471,1416
1460,1416
1469,1406
1443,1424
1439,1411
1445,1409
1433,1409
1413,1413
1431,1404
1428,1419
1419,1413
1439,1424
1426,1416
1440,1424
1419,1473
1428,1445
1455,1445
1455,1419
1416,1419
1419,1415
1443,1416
1462,1419
1516,1428
1664,1415
1898,1424
2095,1419
2221,1413
2007,1396
1735,1415
1441,1401
1393,1413
1388,1419
1411,1433
1419,1428
1428,1430
1413,1415
1396,1403
1412,1404
1406,1393
1416,1419
1413,1466
1440,1592
1426,1867
1407,2197
1406,2458
1430,2604
1424,2627
1428,2151
1432,1820
1440,1513
1430,1339
1445,1379
1428,1396
1429,1406
1419,1391
1434,1406
1432,1401
1455,1409
1452,1402
1439,1403
1430,1401
1424,1401
1441,1401
1442,1393
1442,1404
1440,1400
1477,1411
1478,1406
1477,1409
1473,1404
1492,1402
1468,1409
1494,1400
1478,1413
1494,1401
1490,1431
1490,1426
1497,1424
1466,1445
1490,1456
1469,1432
1483,1424
1441,1490
1467,1460
1464,1457
1466,1432
1445,1477
1470,1528
1437,1590
1432,1608
1428,1615
1453,1565
1412,1562
1433,1567
1424,1588
1460,1583
1417,1709
1432,1677
1430,1597
1422,1569
1413,1497
1415,1494
1413,1462
1428,1457
1417,1490
1424,1473
1422,1480
1413,1533
1426,1526
1440,1430
1453,1445
1441,1483
1453,1412
1445,1437
1411,1411
1416,1400
1428,1415
1432,1437
1416,1419
1439,1466
1432,1430
1416,1457
1437,1424
1437,1404
1433,1402
1432,1443
1444,1417
1439,1463
1416,1439
1427,1466
1443,1440
1462,1377
1437,1424
1431,1415
1440,1424
1430,1430
1424,1478
1431,1443
1412,1428
1415,1477
1416,1478
1430,1452
1428,1445
1426,1428
1432,1433
1416,1428
1406,1455
1417,1439
1455,1428
1470,1490
1440,1513
1455,1478
1445,1529
1470,1456
1460,1467
1470,1428
1474,1458
1432,1533
1453,1588
1434,1508
1440,1484
1430,1508
1445,1419
1440,1457
1427,1477
1428,1483
1431,1445
1415,1483
1429,1504
1444,1456
1432,1473
1432,1573
1427,1497
1453,1555
1417,1523
1428,1534
1404,1591
1432,1600
1417,1580
1473,1569
1506,1488
1533,1618
1785,1641
1913,1667
2082,1674
1921,1583
1709,1684
1538,1569
1417,1588
1391,1506
1406,1490
1416,1453
1404,1506
1406,1646
1411,1494
1417,1483
1419,1526
1407,1504
1406,1469
1428,1470
1428,1574
1431,1526
1428,1494
1419,1673
1412,1670
1437,1890
1428,2129
1428,2573
1445,2702
1417,2871
1441,2754
1422,2461
1416,1948
1439,1725
1440,1460
1424,1467
1443,1557
1437,1547
1445,1595
1460,1572
1458,1455
1439,1566
1463,1531
1452,1642
1456,1669
1453,1608
1470,1488
1469,1432
1466,1478
1473,1580
1483,1664
1492,1595
1466,1637
1503,1560
1494,1526
1480,1548
1477,1636
1483,1673
1463,1624
1488,1632
1496,1628
1490,1595
1476,1695
1457,1759
1445,1674
1462,1684
1428,1712
1463,1735
1444,1681
1437,1748
1443,1837
1453,1801
1454,1848
1415,1882
1428,1891
1433,1878
1433,1860
1432,1890
1429,1927
1428,1847
1440,1934
1430,1900
1428,1849
1443,1904
1422,1850
1432,1794
1439,1798
1426,1778
1430,1790
1441,1748
1430,1732
1428,1674
1430,1815
1443,1735
1444,1777
1443,1798
1443,1637
1433,1516
1415,1607
1415,1523
1437,1605
1455,1548
1415,1641
1430,1697
1428,1623
1422,1697
1433,1739
1463,1588
1443,1585
1462,1598
1439,1705
1441,1619
1441,1682
1440,1682
1443,1624
1445,1643
1428,1689
1419,1637
1430,1604
1417,1722
1428,1709
1426,1687
1432,1636
1419,1560
1441,1656
1445,1600
1424,1642
1419,1624
1433,1623
1428,1533
1452,1615
1433,1712
1460,1669
1456,1702
1462,1621
1452,1634
1439,1644
1445,1746
1466,1723
1470,1596
1463,1580
1467,1548
1462,1624
1456,1572
1441,1596
1454,1669
1444,1641
1445,1697
1431,1588
1417,1637
1439,1569
1413,1596
1430,1669
1452,1607
1445,1643
1426,1698
1426,1658
1433,1656
1427,1544
1428,1615
1432,1682
1453,1609
1490,1634
1518,1619
1584,1584
1803,1607
1968,1624
2045,1676
1939,1619
1750,1694
1483,1753
1388,1711
1417,1684
1428,1698
1419,1819
1439,1694
1427,1789
1424,1744
1428,1713
1441,1615
1434,1607
1416,1753
1439,1700
1445,1643
1431,1665
1426,1597
1445,1569
1440,1617
1433,1604
1442,1566
1445,1544
1437,1543
1441,1621
1452,1513
1430,1595
1455,1617
1452,1647
1452,1669
1432,1890
1463,2190
1460,2521
1483,2762
1462,3064
1478,2859
1469,2538
1477,2150
1460,1729
1483,1583
1490,1480
1504,1529
1504,1538
1508,1538
1492,1604
1488,1619
1498,1528
1509,1619
1506,1634
1516,1577
1519,1567
1506,1538
1516,1531
1543,1469
1516,1535
1492,1503
1501,1681
1494,1566
1490,1693
1496,1615
1483,1632
1485,1632
1490,1634
1445,1665
1457,1711
1454,1513
1460,1686
1460,1643
1466,1641
1468,1656
1477,1656
1470,1679
1471,1698
1452,1777
1456,1739
1473,1798
1471,1747
1483,1824
1494,1815
1469,1735
1466,1855
1462,1878
1478,1837
1484,1810
1470,1906
1503,1877
1484,1781
1478,1803
1470,1819
1477,1778
1478,1757
1469,1743
1490,1748
1494,1745
1494,1770
1478,1759
1476,1733
1471,1596
1483,1595
1492,1591
1490,1674
1488,1590
1485,1597
1490,1579
1485,1416
1478,1521
1488,1508
1477,1557
1498,1577
1484,1561
1490,1611
1494,1580
1494,1636
1490,1682
1478,1600
1480,1529
1480,1521
1473,1552
1498,1444
1502,1582
1490,1583
1497,1622
1477,1528
1488,1597
1492,1560
1496,1540
1503,1492
1483,1635
1490,1643
1504,1621
1490,1607
1521,1504
1526,1541
1521,1478
1519,1583
1521,1582
1508,1585
1503,1538
1512,1592
1518,1580
1514,1519
1492,1547
1528,1604
1504,1526
1492,1523
1496,1580
1508,1544
1490,1478
1478,1568
1492,1478
1488,1460
1490,1544
1488,1573
1504,1595
1490,1526
1483,1508
1496,1456
1502,1580
1497,1533
1516,1583
1557,1468
1658,1469
1924,1445
2351,1534
2510,1523
2471,1565
2111,1521
1813,1574
1514,1538
1393,1582
1490,1412
1506,1583
1494,1456
1481,1441
1492,1535
1477,1593
1483,1545
1478,1559
1492,1504
1483,1462
1490,1513
1492,1565
1504,1529
1496,1483
1492,1531
1492,1648
1492,1579
1490,1637
1483,1584
1492,1531
1494,1557
1498,1577
1521,1700
1519,1557
1504,1538
1508,1494
1500,1566
1514,1531
1503,1643
1514,1513
1526,1428
1513,1383
1516,1478
1538,1548
1541,1526
1545,1483
1543,1437
1545,1330
1555,1455
1543,1480
1560,1474
1547,1404
1568,1476
1540,1568
1557,1734
1538,2028
1552,2414
1547,2831
1538,2970
1548,2912
1545,2430
1555,2023
1543,1508
1531,1317
1533,1353
1529,1359
1504,1424
1513,1468
1508,1365
1518,1362
1513,1373
1538,1506
1521,1486
1521,1494
1513,1467
1504,1502
1496,1391
1483,1473
1506,1440
1521,1469
1516,1285
1516,1303
1516,1362
1518,1407
1513,1483
1504,1452
1498,1456
1514,1529
1508,1470
1518,1560
1513,1492
1521,1344
1506,1506
1521,1543
1521,1548
1521,1569
1503,1555
1519,1580
1492,1557
1498,1567
1506,1624
1526,1622
1527,1582
1508,1704
1526,1634
1514,1769
1508,1738
1494,1681
1504,1637
1498,1592
1506,1629
1529,1689
1514,1666
1514,1714
1514,1622
1514,1677
1502,1591
1492,1656
1513,1618
1490,1428
1502,1531
1519,1474
1518,1471
1523,1528
1498,1536
1508,1526
1490,1321
1498,1480
1503,1445
1516,1430
1516,1411
1513,1343
1508,1456
1514,1470
1513,1388
1516,1343
1527,1393
1526,1276
1529,1258
1535,1294
1557,1463
1543,1480
1516,1595
1531,1432
1514,1445
1502,1407
1518,1618
1516,1284
1508,1365
1508,1352
1523,1379
1506,1357
1516,1379
1498,1369
1506,1386
1485,1393
1503,1422
1521,1426
1514,1305
1518,1328
1504,1383
1504,1477
1485,1401
1503,1431
1527,1462
1616,1330
1970,1456
2192,1445
2521,1483
2582,1374
2309,1278
1877,1494
1610,1365
1439,1352
1441,1456
1516,1228
1494,1262
1494,1249
1488,1480
1492,1386
1496,1406
1477,1406
1474,1359
1490,1328
1469,1388
1490,1419
1460,1374
1483,1300
1469,1325
1488,1315
1513,1396
1492,1374
1488,1383
1506,1413
1509,1299
1498,1312
1516,1365
1503,1248
1498,1357
1498,1463
1521,1488
1506,1424
1498,1353
1496,1281
1516,1300
1504,1330
1514,1409
1516,1428
1513,1502
1521,1392
1521,1383
1531,1437
1524,1485
1516,1658
1533,1526
1529,1506
1527,1492
1506,1490
1548,1397
1540,1496
1518,1211
1580,1370
1541,1264
1531,1353
1516,1281
1518,1279
1514,1191
1519,1139
1518,1357
1518,1263
1514,1391
1514,1476
1516,1325
1504,1317
1492,1250
1492,1312
1485,1276
1483,1336
1490,1578
1498,1750
1492,2228
1485,2484
1488,2645
1496,2599
1473,2145
1470,1772
1508,1412
1509,1263
1490,1213
1490,1406
1508,1266
1485,1415
1492,1260
1485,1379
1498,1236
1490,1336
1504,1310
1488,1343
1502,1299
1473,1261
1494,1249
1490,1300
1498,1300
1483,1262
1485,1217
1502,1204
1483,1207
1508,1342
1503,1452
1490,1490
1485,1454
1502,1429
1485,1289
1497,1233
1503,1311
1497,1426
1470,1386
1485,1272
1474,1343
1506,1404
1463,1519
1488,1540
1492,1611
1470,1585
1490,1483
1494,1466
1488,1453
1473,1543
1488,1584
1490,1590
1485,1608
1476,1604
1483,1656
1492,1622
1483,1617
1481,1545
1492,1617
1502,1656
1514,1508
1516,1621
1519,1588
1504,1569
1504,1380
1513,1424
1504,1300
1506,1289
1503,1383
1501,1494
1496,1503
1494,1370
1490,1251
1488,1236
1478,1417
1470,1468
1478,1521
1473,1506
1470,1365
1481,1300
1490,1383
1504,1300
1462,1223
1462,1297
1447,1365
1488,1331
1502,1373
1666,1428
1825,1355
2098,1290
2364,1276
2549,1305
2437,1369
2041,1313
1721,1353
1424,1338
1355,1309
1452,1434
1452,1385
1452,1339
1457,1299
1477,1457
1473,1404
1466,1396
1456,1416
1469,1353
1444,1315
1467,1328
1477,1361
1470,1323
1476,1317
1463,1396
1467,1387
1445,1382
1460,1341
1443,1328
1466,1379
1462,1302
1469,1404
1467,1391
1483,1366
1478,1343
1490,1323
1488,1379
1477,1406
1469,1339
1485,1289
1490,1357
1490,1422
1502,1514
1490,1419
1483,1365
1477,1292
1492,1406
1490,1373
1514,1383
1498,1338
1506,1381
1509,1393
1503,1419
1504,1419
1498,1496
1504,1309
1503,1263
1506,1317
1502,1323
1496,1393
1503,1433
1496,1513
1490,1275
1474,1305
1484,1306
1469,1294
1460,1413
1473,1411
1474,1428
1469,1441
1466,1440
1474,1518
1468,1439
1463,1424
1439,1460
1473,1543
1462,1403
1483,1519
1473,1466
1455,1468
1452,1480
1468,1411
1468,1462
1469,1452
1456,1411
1468,1463
1460,1381
1462,1374
1468,1352
1477,1335
1473,1426
1456,1454
1456,1381
1456,1370
1481,1234
1433,1236
1488,1310
1469,1490
1468,1473
1466,1656
1483,1914
1468,2246
1456,2516
1469,2788
1473,2770
1460,2440
1441,2074
1468,1644
1452,1424
1463,1215
1480,1289
1467,1278
1470,1276
1445,1287
1473,1396
1462,1440
1467,1263
1473,1349
1460,1273
1441,1201
1443,1285
1463,1254
1458,1267
1469,1241
1452,1249
1464,1336
1467,1265
1442,1268
1463,1416
1463,1411
1463,1326
1457,1248
1463,1290
1476,1366
1469,1294
1468,1317
1471,1323
1462,1325
1445,1351
1478,1335
1463,1433
1473,1281
1490,1441
1481,1504
1478,1352
1474,1513
1477,1567
1478,1579
1469,1519
1464,1428
1457,1429
1464,1474
1453,1544
1471,1598
1452,1597
1439,1656
1460,1635
1462,1619
1445,1607
1440,1470
1440,1533
1437,1514
1437,1473
1456,1424
1469,1413
1492,1381
1508,1338
1834,1428
2091,1396
2326,1352
2504,1281
2275,1387
1888,1377
1611,1355
1374,1374
1406,1445
1443,1393
1433,1331
1428,1458
1424,1292
1424,1325
1424,1302
1428,1330
1433,1393
1445,1276
1454,1328
1457,1369
1428,1300
1430,1315
1437,1285
1454,1278
1439,1388
1455,1393
1453,1367
1441,1379
1424,1374
1452,1480
1441,1523
1440,1426
1440,1306
1452,1344
1431,1300
1424,1351
1456,1365
1458,1323
1452,1285
1471,1268
1480,1392
1473,1406
1468,1300
1477,1396
1492,1483
1473,1432
1492,1387
1473,1390
1490,1379
1485,1331
1490,1415
1490,1415
1494,1406
1478,1325
1488,1387
1488,1285
1480,1338
1483,1336
1504,1452
1485,1369
1486,1401
1481,1406
1473,1419
1469,1349
1463,1439
1453,1488
1473,1443
1432,1366
1462,1341
1480,1401
1428,1422
1445,1379
1443,1428
1443,1387
1428,1311
1433,1395
1445,1439
1455,1488
1445,1393
1440,1460
1441,1361
1424,1380
1433,1466
1463,1477
1462,1502
1445,1490
1441,1460
1445,1390
1456,1381
1443,1544
1443,1567
1432,1593
1439,1506
1428,1572
1424,1607
1428,1527
1440,1548
1462,1490
1456,1577
1445,1564
1463,1561
1441,1531
1437,1509
1433,1547
1462,1686
1443,1628
1456,1559
1445,1521
1445,1538
1445,1490
1426,1460
1428,1509
1440,1591
1424,1526
1428,1473
1432,1548
1416,1456
1433,1480
1440,1407
1470,1498
1445,1543
1455,1735
1452,2098
1445,2351
1428,2696
1441,2992
1441,3000
1428,2604
1428,2098
1453,1709
1429,1440
1437,1490
1433,1557
1463,1592
1445,1560
1441,1488
1458,1469
1467,1628
1432,1621
1453,1463
1437,1583
1441,1568
1452,1494
1478,1538
1492,1634
1463,1521
1467,1513
1477,1624
1483,1521
1467,1583
1478,1597
1462,1597
1424,1616
1432,1621
1460,1611
1453,1615
1452,1577
1441,1656
1452,1757
1415,1711
1432,1624
1433,1725
1452,1684
1411,1718
1431,1665
1426,1694
1424,1787
1411,1734
1453,1846
1473,1877
1490,1867
1598,1812
1900,1927
2124,1888
2391,1849
2347,1925
2014,1922
1709,1954
1440,1891
1374,1861
1433,1900
1430,1840
1415,1860
1439,1877
1432,1803
1453,1763
1432,1798
1419,1813
1426,1708
1428,1723
1424,1803
1428,1723
1430,1683
1430,1695
1443,1770
1424,1704
1443,1611
1432,1613
1445,1666
1424,1669
1443,1676
1453,1695
1429,1618
1445,1628
1455,1676
1427,1615
1437,1664
1437,1665
1470,1734
1462,1711
1469,1724
1456,1628
1473,1723
1455,1656
1457,1700
1488,1689
1466,1775
1483,1629
1483,1656
1484,1698
1478,1592
1488,1743
1496,1695
1494,1669
1485,1695
1502,1694
1492,1735
1490,1723
1480,1632
1496,1686
1480,1610
1484,1627
1474,1608
1477,1725
1469,1744
1468,1695
1466,1669
1445,1709
1439,1683
1445,1676
1439,1741
1428,1730
1424,1673
1454,1627
1428,1730
1430,1588
1430,1582
1463,1624
1442,1607
1441,1622
1443,1593
1441,1616
1443,1691
1428,1609
1445,1724
1430,1659
1431,1744
1440,1684
1463,1746
1439,1604
1439,1719
1462,1664
1431,1748
1442,1644
1445,1583
1433,1592
1433,1695
1413,1669
1455,1713
1462,1752
1439,1775
1452,1689
1445,1750
1443,1761
1432,1862
1445,1813
1440,1815
1433,1723
1455,1711
1460,1746
1440,1765
1428,1694
1413,1669
1439,1686
1430,1557
1433,1565
1445,1529
1441,1617
1428,1592
1440,1583
1462,1689
1444,1669
1430,1593
1444,1634
1430,1669
1428,1632
1456,1666
1455,1676
1441,1925
1432,2164
1428,2546
1437,2836
1428,2962
1445,2776
1460,2407
1455,2023
1437,1682
1443,1468
1430,1540
1437,1575
1452,1580
1463,1637
1470,1675
1470,1531
1452,1572
1463,1552
1460,1684
1468,1557
1490,1621
1468,1636
1469,1540
1473,1531
1460,1533
1442,1634
1422,1548
1437,1557
1445,1582
1443,1583
1455,1561
1444,1735
1437,1607
1417,1596
1432,1541
1430,1644
1463,1656
1433,1676
1445,1669
1417,1795
1453,1642
1497,1691
1538,1724
1724,1729
1967,1642
2275,1812
2252,1862
2074,1835
1738,1794
1468,1765
1352,1743
1385,1746
1437,1803
1437,1878
1428,1798
1426,1873
1441,1775
1417,1834
1424,1816
1419,1757
1440,1920
1440,1769
1428,1781
1424,1738
1428,1762
1432,1674
1430,1666
1433,1666
1411,1647
1422,1516
1441,1490
1464,1529
1452,1498
1469,1577
1426,1578
1456,1642
1431,1546
1453,1557
1460,1635
1437,1518
1452,1526
1462,1540
1477,1477
1457,1512
1456,1516
1474,1642
1462,1578
1490,1544
1474,1528
1486,1636
1470,1559
1468,1656
1490,1547
1486,1534
1511,1492
1506,1533
1519,1565
1494,1533
1504,1502
1499,1506
1490,1561
1478,1629
1508,1557
1480,1596
1477,1477
1473,1565
1478,1584
1469,1607
1453,1527
1452,1494
1456,1622
1445,1528
1428,1622
1441,1496
1424,1621
1434,1467
1443,1456
1460,1534
1433,1580
1437,1548
1445,1490
1443,1526
1437,1483
1430,1478
1476,1469
1444,1506
1445,1411
1428,1457
1437,1509
1437,1516
1419,1561
1437,1649
1440,1609
1433,1529
1456,1428
1428,1452
1455,1437
1445,1445
1474,1466
1466,1622
1440,1513
1447,1527
1428,1617
1437,1592
1444,1533
1452,1591
1453,1642
1432,1689
1474,1566
1443,1628
1464,1566
1427,1547
1433,1615
1432,1647
1433,1669
1443,1569
1456,1541
1462,1445
1439,1413
1426,1355
1455,1433
1426,1483
1445,1468
1455,1549
1445,1490
1445,1494
1443,1433
1470,1516
1433,1426
1430,1432
1433,1458
1441,1588
1437,1775
1454,1874
1463,2254
1473,2555
1455,2793
1453,2756
1445,2421
1452,2030
1453,1630
1483,1457
1462,1379
1454,1445
1468,1416
1474,1523
1457,1424
1478,1419
1483,1341
1473,1430
1469,1396
1462,1388
1452,1466
1441,1426
1443,1428
1469,1393
1457,1474
1467,1411
1469,1411
1462,1452
1440,1458
1428,1441
1437,1462
1441,1533
1437,1468
1428,1380
1428,1417
1440,1443
1441,1466
1456,1494
1492,1477
1521,1445
1838,1428
2000,1534
2288,1590
2328,1531
2028,1621
1778,1580
1463,1705
1355,1566
1424,1673
1445,1561
1428,1671
1443,1574
1443,1610
1432,1632
1428,1618
1437,1748
1445,1637
1428,1676
1441,1637
1445,1711
1455,1686
1428,1634
1453,1591
1443,1646
1440,1609
1477,1588
1442,1557
1441,1555
1428,1391
1457,1473
1477,1409
1457,1439
1455,1455
1466,1370
1460,1534
1453,1503
1466,1432
1473,1466
1478,1406
1470,1381
1485,1311
1470,1445
1483,1355
1480,1369
1504,1416
1496,1385
1492,1369
1508,1383
1490,1456
1513,1492
1514,1485
1509,1437
1508,1439
1512,1306
1529,1317
1521,1391
1496,1403
1504,1492
1502,1456
1498,1466
1473,1432
1488,1351
1490,1406
1476,1432
1488,1391
1503,1328
1460,1361
1473,1370
1454,1339
1470,1431
1468,1419
1469,1386
1462,1430
1467,1424
1464,1317
1457,1374
1473,1367
1439,1409
1445,1456
1456,1531
1469,1388
1433,1470
1460,1401
1469,1299
1469,1341
1470,1343
1468,1305
1483,1352
1483,1441
1468,1490
1492,1344
1468,1413
1455,1393
1457,1365
1467,1386
1463,1279
1462,1300
1483,1344
1483,1488
1456,1478
1462,1361
1467,1290
1469,1406
1463,1377
1468,1403
1470,1470
1456,1478
1458,1422
1469,1467
1474,1519
1457,1521
1467,1557
1460,1490
1464,1506
1441,1401
1468,1466
1468,1458
1469,1428
1477,1290
1476,1315
1468,1370
1463,1306
1460,1323
1483,1391
1455,1355
1468,1312
1469,1331
1466,1462
1453,1317
1478,1331
1478,1268
1457,1290
1460,1259
1462,1439
1469,1811
1428,2093
1441,2432
1464,2695
1470,2906
1467,2557
1488,2151
1456,1656
1483,1474
1490,1254
1496,1385
1492,1390
1490,1352
1486,1303
1494,1290
1490,1292
1488,1275
1490,1290
1474,1385
1480,1313
1468,1232
1494,1299
1463,1316
1478,1300
1462,1310
1452,1343
1468,1428
1455,1413
1471,1385
1473,1424
1469,1284
1478,1325
1455,1351
1445,1443
1443,1342
1470,1393
1483,1406
1531,1403
1730,1439
2041,1452
2247,1431
2391,1351
2320,1428
1834,1494
1621,1506
1424,1445
1426,1483
1443,1432
1468,1504
1454,1496
1469,1572
1456,1628
1443,1596
1466,1543
1462,1682
1453,1600
1483,1628
1460,1621
1443,1644
1443,1608
1453,1544
1433,1534
1445,1433
1466,1488
1466,1452
1463,1445
1453,1361
1470,1323
1468,1393
1466,1419
1456,1413
1456,1445
1456,1483
1473,1266
1502,1370
1476,1411
1471,1344
1485,1365
1485,1344
1494,1374
1483,1325
1503,1299
1494,1317
1496,1374
1503,1341
1518,1351
1508,1385
1506,1285
1508,1265
1504,1396
1508,1310
1523,1428
1521,1393
1498,1468
1509,1504
1513,1353
1514,1303
1513,1273
1496,1223
1496,1201
1478,1366
1483,1445
1490,1352
1483,1474
1467,1383
1473,1404
1483,1411
1474,1348
1469,1395
1469,1328
1484,1365
1455,1351
1498,1281
1457,1276
1467,1207
1453,1255
1477,1260
1453,1353
1460,1476
1455,1331
1467,1225
1477,1278
1469,1241
1466,1313
1483,1383
1478,1478
1437,1455
1494,1383
1469,1283
1469,1406
1456,1321
1483,1276
1477,1287
1468,1323
1469,1310
1468,1318
1467,1325
1470,1311
1467,1260
1468,1379
1463,1396
1455,1441
1457,1503
1458,1504
1453,1490
1496,1366
1476,1422
1445,1431
1466,1455
1478,1404
1473,1569
1478,1387
1473,1306
1424,1370
1396,1361
1437,1294
1477,1379
1460,1306
1483,1343
1469,1297
1473,1319
1476,1312
1471,1325
1477,1234
1483,1325
1430,1290
1443,1275
1388,1231
1443,1374
1456,1514
1506,1682
1473,1987
1466,2386
1477,2591
1528,2704
1503,2516
1477,2117
1473,1635
1433,1474
1519,1338
1509,1306
1543,1239
1480,1259
1462,1289
1473,1228
1463,1266
1463,1166
1434,1185
1494,1251
1471,1374
1469,1433
1485,1379
1504,1192
1497,1338
1480,1142
1490,1260
1476,1303
1474,1297
1494,1278
1485,1323
1478,1357
1442,1393
1443,1342
1419,1365
1404,1458
1406,1335
1480,1351
1471,1338
1521,1401
1531,1428
1595,1387
1772,1328
1941,1351
2376,1351
2422,1518
2284,1521
1934,1428
1624,1445
1357,1634
1382,1617
1468,1577
1453,1533
1430,1555
1419,1566
1450,1544
1429,1682
1430,1669
1469,1509
1428,1453
1473,1583
1467,1521
1466,1519
1445,1483
1485,1548
1432,1428
1462,1441
1463,1419
1453,1377
1473,1377
1441,1453
1452,1419
1432,1370
1452,1428
1441,1430
1411,1333
1455,1310
1468,1275
1503,1302
1509,1319
1521,1343
1483,1385
1503,1377
1513,1312
1498,1292
1485,1338
1494,1312
1513,1357
1485,1440
1492,1432
1474,1406
1492,1267
1501,1248
1503,1369
1502,1305
1496,1440
1494,1309
1514,1343
1526,1319
1519,1396
1519,1409
1521,1331
1488,1319
1488,1377
1503,1303
1492,1254
1488,1415
1468,1387
1481,1302
1466,1419
1462,1353
1467,1381
1455,1383
1445,1355
1463,1312
1455,1281
1483,1246
1460,1323
1455,1302
1455,1339
1455,1379
1437,1359
1463,1284
1494,1236
1468,1316
1484,1260
1474,1267
1428,1325
1416,1402
1440,1349
1483,1355
1488,1338
1483,1380
1468,1362
1452,1370
1469,1393
1470,1417
1478,1338
1453,1441
1483,1502
1468,1490
1483,1419
1488,1462
1470,1392
1452,1429
1477,1352
1460,1393
1462,1377
1454,1352
1413,1455
1417,1419
1419,1302
1456,1338
1460,1462
1462,1318
1478,1321
1492,1290
1469,1323
1455,1224
1466,1268
1478,1260
1463,1363
1490,1239
1445,1300
1441,1457
1437,1718
1440,1924
1443,2451
1457,2544
1433,2677
1437,2512
1466,2118
1445,1634
1488,1265
1468,1162
1467,1311
1478,1246
1470,1323
1441,1339
1452,1217
1474,1260
1462,1365
1473,1379
1463,1275
1457,1366
1468,1292
1480,1254
1494,1241
1488,1312
1469,1393
1480,1339
1452,1276
1462,1302
1447,1338
1478,1319
1474,1381
1478,1326
1463,1361
1468,1370
1455,1385
1469,1454
1463,1382
1476,1374
1439,1355
1467,1294
1456,1328
1456,1411
1430,1457
1463,1460
1452,1483
1490,1534
1526,1468
1763,1456
1921,1508
2316,1528
2347,1533
2039,1531
1785,1545
1441,1518
1369,1641
1416,1611
1441,1561
1441,1595
1439,1483
1413,1611
1430,1572
1441,1490
1455,1415
1428,1428
1441,1428
1441,1428
1417,1447
1431,1445
1453,1406
1441,1478
1452,1409
1437,1409
1441,1300
1432,1276
1432,1353
1455,1278
1466,1251
1445,1267
1456,1267
1437,1317
1457,1339
1455,1406
1485,1316
1477,1237
1468,1392
1470,1328
1490,1357
1466,1361
1469,1419
1478,1300
1490,1331
1502,1299
1480,1383
1492,1274
1477,1299
1485,1406
1488,1370
1508,1317
1502,1281
1498,1303
1514,1362
1504,1362
1508,1424
1496,1400
1492,1344
1496,1340
1483,1370
1506,1290
1503,1315
1485,1393
1473,1292
1483,1290
1462,1294
1433,1351
1440,1315
1456,1287
1456,1326
1463,1401
1463,1276
1452,1308
1432,1393
1424,1351
1453,1312
1456,1367
1458,1388
1453,1279
1455,1234
1439,1268
1424,1290
1440,1279
1433,1338
1437,1395
1460,1359
1455,1396
1452,1494
1453,1433
1456,1365
1463,1462
1437,1502
1445,1490
1455,1476
1455,1452
1470,1391
1467,1326
1441,1361
1424,1443
1430,1384
1463,1343
1466,1284
1455,1300
1462,1233
1445,1275
1453,1303
1443,1392
1439,1379
1428,1428
1428,1374
1468,1299
1483,1228
1453,1234
1456,1234
1452,1213
1434,1309
1456,1366
1463,1544
1452,1829
1432,2299
1453,2590
1445,2686
1456,2610
1442,2309
1440,1828
1444,1490
1439,1213
1437,1273
1456,1201
1458,1237
1433,1323
1452,1342
1452,1317
1464,1262
1463,1183
1473,1308
1469,1310
1445,1365
1454,1344
1456,1241
1485,1263
1463,1338
1504,1340
1473,1237
1477,1251
1463,1263
1477,1287
1480,1290
1452,1377
1441,1351
1462,1239
1441,1411
1456,1406
1452,1413
1453,1343
1439,1340
1443,1424
1457,1260
1419,1415
1437,1413
1439,1363
1457,1445
1428,1428
1406,1484
1428,1441
1460,1528
1487,1597
1642,1592
1941,1566
2113,1580
2316,1536
2212,1466
1821,1419
1624,1483
1401,1582
1374,1572
1428,1627
1419,1591
1416,1457
1430,1457
1411,1458
1432,1457
1430,1453
1411,1484
1415,1474
1428,1508
1416,1325
1406,1335
1445,1312
1453,1236
1445,1310
1432,1411
1440,1349
1455,1370
1460,1375
1424,1280
1439,1280
1437,1330
1440,1374
1463,1406
1463,1369
1437,1380
1428,1351
1455,1311
1453,1326
1456,1299
1485,1361
1477,1328
1462,1289
1477,1312
1478,1365
1486,1349
1469,1428
1478,1317
1490,1305
1492,1344
1488,1326
1494,1428
1490,1349
1483,1377
1502,1406
1519,1365
1506,1294
1492,1370
1496,1339
1490,1249
1484,1251
1496,1361
1490,1330
1470,1344
1484,1341
1463,1338
1468,1452
1457,1406
1439,1391
1447,1401
1441,1299
1445,1357
1440,1366
1457,1237
1428,1309
1426,1292
1455,1323
1454,1339
1456,1357
1463,1422
1471,1365
1464,1292
1458,1336
1441,1305
1458,1290
1468,1328
1463,1381
1444,1402
1437,1413
1430,1534
1428,1513
1468,1424
1427,1467
1457,1455
1463,1413
1483,1456
1453,1463
1460,1424
1460,1357
1468,1365
1473,1443
1457,1480
1467,1401
1463,1335
1455,1361
1463,1299
1445,1352
1431,1406
1440,1336
1455,1315
1454,1340
1455,1305
1452,1287
1440,1215
1431,1207
1466,1306
1474,1330
1468,1544
1445,1698
1467,2076
1455,2404
1483,2741
1428,2787
1477,2510
1447,2142
1473,1656
1488,1352
1468,1250
1456,1268
1457,1343
1468,1343
1462,1328
1467,1361
1477,1361
1462,1267
1480,1323
1457,1290
1477,1306
1466,1236
1456,1300
1469,1330
1498,1278
1488,1412
1502,1353
1483,1302
1506,1355
1473,1406
1494,1383
1490,1355
1478,1336
1476,1406
1476,1406
1468,1338
1463,1387
1455,1370
1490,1340
1469,1362
1455,1445
1458,1422
1469,1452
1466,1463
1474,1468
1467,1496
1468,1513
1442,1543
1444,1521
1480,1469
1490,1566
1508,1518
1711,1580
1941,1528
2152,1580
2442,1635
2348,1568
2012,1709
1748,1669
1480,1679
1413,1531
1454,1552
1470,1545
1462,1469
1466,1476
1445,1445
1466,1433
1473,1393
1456,1381
1467,1478
1463,1386
1441,1365
1428,1395
1458,1370
1467,1361
1460,1437
1453,1428
1470,1460
1469,1373
1441,1313
1457,1274
1469,1325
1474,1317
1473,1335
1469,1396
1476,1328
1483,1397
1490,1480
1496,1386
1473,1430
1485,1315
1483,1426
1506,1365
1512,1362
1490,1404
1506,1351
1498,1355
1506,1344
1514,1331
1494,1357
1488,1411
1508,1336
1519,1385
1534,1437
1531,1392
1518,1415
1523,1341
1526,1365
1519,1411
1538,1445
1518,1351
1521,1428
1513,1409
1521,1341
1494,1328
1490,1365
1494,1387
1506,1294
1483,1284
1488,1303
1503,1331
1477,1338
1485,1444
1494,1415
1483,1390
1476,1435
1483,1331
1496,1381
1496,1381
1467,1411
1490,1456
1488,1355
1483,1369
1468,1387
1492,1379
1490,1361
1492,1404
1486,1439
1480,1391
1485,1383
1477,1403
1490,1473
1490,1400
1485,1415
1494,1572
1498,1485
1492,1456
1483,1460
1483,1471
1487,1428
1485,1415
1490,1494
1504,1432
1508,1406
1477,1404
1484,1375
1492,1255
1498,1343
1485,1309
1494,1406
1492,1306
1483,1280
1486,1338
1494,1254
1473,1325
1481,1355
1492,1478
1504,1538
1506,1803
1508,2117
1488,2427
1483,2662
1490,2729
1494,2444
1506,2024
1488,1540
1474,1306
1486,1199
1504,1317
1476,1338
1504,1343
1503,1345
1501,1338
1494,1466
1514,1352
1490,1342
1494,1272
1503,1349
1504,1287
1508,1342
1508,1338
1509,1357
1499,1278
1523,1336
1519,1370
1518,1370
1513,1390
1509,1453
1512,1468
1496,1309
1496,1343
1483,1388
1506,1370
1506,1432
1488,1430
1492,1361
1502,1447
1492,1430
1478,1577
1498,1460
1488,1428
1474,1395
1474,1547
1492,1519
1473,1531
1490,1635
1503,1536
1567,1543
1757,1559
2153,1588
2372,1582
2638,1566
2554,1592
2296,1658
1850,1535
1543,1441
1395,1506
1437,1531
1480,1560
1469,1611
1463,1565
1470,1521
1473,1504
1464,1565
1477,1445
1466,1432
1478,1456
1477,1379
1477,1323
1478,1361
1469,1377
1488,1395
1488,1323
1477,1365
1480,1411
1476,1351
1478,1325
1483,1341
1492,1415
1503,1289
1477,1278
1483,1353
1492,1380
1488,1338
1488,1393
1494,1338
1492,1383
1488,1366
1492,1387
1498,1428
1503,1268
1506,1342
1485,1488
1567,1521
1514,1375
1514,1422
1506,1411
1548,1258
1524,1267
1578,1303
1566,1387
1504,1294
1506,1385
1555,1388
1555,1401
1575,1422
1527,1391
1529,1383
1498,1413
1474,1393
1508,1357
1513,1355
1508,1315
1490,1351
1492,1379
1492,1294
1487,1429
1490,1416
1490,1343
1480,1300
1483,1303
1478,1338
1474,1330
1485,1430
1490,1453
1485,1466
1494,1353
1481,1336
1483,1313
1473,1300
1470,1365
1478,1339
1498,1383
1498,1428
1474,1326
1483,1469
1490,1417
1483,1441
1469,1543
1471,1508
1474,1492
1478,1483
1486,1490
1490,1453
1478,1361
1473,1388
1490,1513
1474,1367
1490,1302
1480,1343
1474,1299
1480,1374
1478,1379
1483,1379
1496,1331
1477,1241
1483,1381
1490,1411
1483,1365
1480,1383
1485,1352
1477,1401
1477,1497
1469,1568
1494,1785
1488,2089
1483,2445
1480,2703
1490,2662
1483,2249
1480,1906
1476,1470
1469,1239
1477,1268
1477,1303
1490,1379
1474,1286
1483,1328
1492,1361
1485,1305
1477,1286
1483,1335
1481,1366
1533,1325
1504,1413
1513,1355
1502,1396
1492,1367
1488,1456
1494,1361
1490,1343
1490,1312
1490,1374
1483,1377
1494,1331
1477,1413
1470,1366
1484,1362
1469,1419
1469,1490
1478,1388
1467,1430
1476,1403
1469,1415
1477,1521
1469,1478
1467,1527
1480,1611
1488,1580
1494,1577
1781,1545
2073,1498
2347,1535
2624,1694
2584,1642
2238,1622
1810,1597
1518,1621
1377,1540
1403,1582
1466,1588
1463,1693
1444,1583
1432,1632
1460,1647
1456,1547
1445,1521
1453,1463
1462,1533
1455,1490
1452,1419
1447,1504
1463,1518
1463,1433
1462,1485
1474,1441
1458,1431
1474,1361
1471,1453
1473,1444
1467,1443
1469,1373
1462,1492
1462,1445
1469,1365
1473,1468
1478,1545
1478,1406
1474,1494
1480,1492
1477,1431
1471,1506
1478,1406
1483,1519
1541,1419
1523,1462
1490,1429
1502,1519
1480,1422
1478,1490
1494,1430
1519,1419
1490,1478
1508,1548
1607,1573
1548,1494
1504,1444
1508,1456
1538,1440
1496,1386
1508,1437
1503,1477
1483,1498
1470,1490
1476,1529
1473,1422
1468,1445
1457,1467
1468,1477
1470,1431
1467,1468
1480,1401
1474,1548
1468,1455
1437,1508
1445,1494
1453,1468
1456,1469
1463,1457
1457,1481
1466,1428
1456,1437
1468,1521
1483,1488
1478,1466
1469,1455
1467,1478
1466,1476
1462,1579
1468,1514
1477,1640
1462,1591
1453,1604
1466,1611
1473,1632
1468,1616
1477,1643
1468,1656
1462,1567
1469,1555
1469,1583
1466,1519
1473,1488
1460,1569
1469,1547
1462,1512
1477,1492
1469,1533
1480,1533
1463,1492
1466,1585
1457,1584
1460,1466
1470,1437
1468,1480
1477,1528
1463,1336
1469,1469
1467,1583
1460,1600
1456,1891
1462,2240
1470,2636
1470,2788
1452,2925
1477,2604
1467,2224
1470,1828
1463,1592
1478,1426
1466,1467
1477,1445
1469,1597
1485,1604
1477,1548
1478,1406
1483,1538
1488,1424
1483,1474
1483,1455
1478,1490
1478,1395
1478,1597
1483,1605
1477,1617
1467,1564
1467,1552
1462,1604
1469,1490
1453,1540
1476,1527
1469,1540
1460,1569
1483,1647
1462,1591
1452,1504
1462,1538
1476,1616
1473,1630
1466,1646
1466,1591
1478,1686
1485,1579
1689,1611
1898,1681
2229,1735
2445,1748
2619,1712
2458,1824
2071,1759
1674,1791
1413,1763
1365,1815
1445,1753
1445,1808
1440,1833
1443,1785
1437,1722
1441,1816
1456,1763
1443,1669
1453,1624
1443,1641
1466,1698
1452,1659
1445,1770
1456,1750
1456,1600
1441,1589
1455,1698
1462,1592
1463,1597
1456,1593
1469,1588
1470,1565
1445,1504
1445,1578
1453,1615
1462,1540
1454,1533
1473,1555
1468,1611
1468,1531
1468,1596
1469,1656
1480,1624
1483,1583
1477,1544
1483,1641
1474,1555
1466,1572
1508,1637
1545,1546
1494,1492
1543,1615
1591,1643
1526,1555
1609,1565
1638,1555
1616,1615
1555,1543
1490,1598
1560,1611
1513,1545
1528,1514
1473,1592
1483,1577
1483,1538
1462,1628
1467,1615
1468,1624
1469,1634
1455,1597
1468,1607
1456,1565
1469,1538
1469,1566
1466,1583
1469,1610
1477,1584
1476,1607
1463,1543
1460,1483
1445,1628
1463,1566
1434,1529
1458,1608
1443,1600
1458,1528
1467,1533
1473,1579
1470,1580
1478,1649
1464,1580
1468,1643
1454,1548
1466,1514
1455,1611
1468,1664
1469,1568
1466,1700
1466,1709
1456,1618
1455,1584
1454,1725
1473,1705
1460,1646
1462,1637
1445,1627
1463,1697
1453,1577
1463,1583
1469,1600
1469,1523
1452,1527
1469,1519
1470,1583
1468,1519
1455,1611
1463,1590
1462,1513
1470,1452
1468,1561
1469,1443
1468,1430
1458,1582
1463,1709
1453,1878
1462,2045
1471,2486
1467,2760
1452,2916
1463,2880
1457,2559
1483,2023
1456,1682
1460,1440
1477,1428
1478,1519
1469,1480
1469,1573
1469,1538
1471,1490
1466,1504
1480,1518
1483,1462
1496,1463
1492,1483
1478,1473
1466,1443
1468,1497
1469,1516
1463,1659
1462,1516
1469,1617
1478,1596
1456,1529
1468,1453
1469,1569
1468,1548
1453,1519
1455,1533
1463,1555
1466,1555
1445,1644
1452,1647
1460,1605
1463,1600
1480,1595
1565,1641
1882,1600
2148,1613
2456,1687
2739,1646
2627,1638
2233,1713
1860,1781
1474,1768
1336,1748
1415,1769
1474,1700
1443,1669
1432,1735
1445,1798
1457,1735
1431,1788
1441,1777
1422,1782
1437,1674
1432,1673
1432,1656
1440,1700
1443,1698
1444,1621
1437,1560
1452,1543
1441,1504
1445,1597
1444,1536
1457,1494
1453,1498
1456,1561
1453,1415
1441,1468
1441,1434
1445,1509
1445,1476
1445,1577
1464,1637
1468,1533
1453,1514
1468,1453
1462,1508
1490,1415
1463,1416
1473,1509
1456,1531
1466,1467
1529,1502
1548,1512
1555,1469
1504,1527
1483,1535
1514,1565
1529,1528
1516,1567
1535,1583
1469,1457
1508,1470
1513,1494
1538,1529
1478,1455
1453,1392
1462,1502
1466,1470
1456,1463
1462,1453
1453,1623
1457,1484
1437,1504
1457,1521
1452,1519
1460,1439
1447,1621
1452,1531
1460,1426
1441,1396
1457,1419
1458,1463
1456,1432
1456,1432
1441,1470
1456,1445
1445,1458
1455,1455
1463,1569
1452,1415
1460,1513
1456,1514
1456,1415
1433,1443
1441,1430
1443,1468
1456,1457
1464,1477
1463,1504
1452,1523
1462,1518
1437,1562
1456,1569
1456,1624
1455,1428
1455,1628
1463,1514
1455,1577
1456,1516
1460,1538
1452,1485
1453,1490
1456,1548
1463,1543
1445,1452
1452,1445
1455,1566
1456,1469
1432,1422
1453,1370
1456,1433
1454,1369
1445,1456
1468,1365
1439,1413
1454,1357
1453,1396
1457,1578
1445,1759
1428,2168
1445,2502
1467,2750
1470,2811
1455,2571
1468,2249
1445,1711
1457,1557
1457,1325
1456,1370
1444,1323
1443,1278
1468,1401
1468,1454
1456,1416
1468,1353
1466,1401
1471,1339
1471,1308
1483,1413
1470,1409
1463,1352
1463,1401
1470,1463
1463,1426
1462,1415
1454,1437
1462,1433
1458,1463
1442,1514
1457,1521
1443,1424
1437,1404
1445,1456
1443,1488
1455,1406
1458,1462
1454,1547
1460,1572
1457,1494
1464,1490
1555,1592
1709,1555
2118,1591
2396,1664
2622,1644
2527,1559
2206,1533
1813,1584
1531,1648
1359,1628
1388,1669
1432,1671
1432,1607
1428,1598
1433,1727
1428,1718
1428,1687
1440,1591
1440,1516
1432,1514
1417,1569
1428,1684
1428,1698
1430,1604
1452,1521
1453,1547
1441,1485
1440,1377
1441,1338
1428,1384
1444,1341
1432,1452
1441,1486
1443,1407
1433,1325
1452,1445
1453,1278
1455,1338
1456,1468
1457,1607
1457,1478
1437,1365
1456,1220
1463,1275
1445,1343
1469,1498
1460,1621
1466,1580
1468,1428
1506,1490
1485,1365
1490,1412
1462,1424
1490,1458
1521,1572
1480,1462
1531,1379
1496,1286
1485,1326
1473,1504
1488,1580
1488,1634
1466,1445
1457,1328
1457,1447
1457,1480
1456,1567
1462,1513
1470,1557
1457,1300
1463,1393
1428,1484
1432,1557
1426,1516
1445,1483
1430,1584
1445,1409
1441,1416
1440,1476
1445,1416
1445,1454
1455,1417
1456,1473
1441,1580
1445,1393
1445,1488
1443,1470
1452,1463
1443,1578
1457,1658
1429,1712
1419,1573
1432,1478
1445,1393
1443,1377
1453,1362
1453,1519
1457,1580
1443,1557
1445,1711
1453,1798
1452,1636
1445,1443
1455,1538
1455,1700
1440,1667
1441,1695
1457,1547
1439,1516
1445,1600
1454,1659
1445,1732
1437,1698
1441,1635
1468,1610
1445,1432
1445,1521
1458,1516
1445,1744
1463,1632
1463,1503
1458,1496
1445,1365
1432,1411
1428,1565
1441,1624
1452,1566
1441,1725
1457,1870
1453,2113
1455,2465
1428,2684
1444,3011
1443,2938
1452,2518
1454,2080
1469,1789
1445,1529
1452,1415
1462,1490
1462,1415
1457,1519
1463,1561
1477,1534
1456,1477
1470,1572
1467,1544
1476,1572
1453,1513
1463,1534
1469,1691
1456,1616
1440,1535
1453,1526
1441,1643
1455,1670
1439,1700
1441,1634
1430,1557
1444,1573
1437,1628
1439,1673
1426,1596
1440,1691
1440,1674
1444,1609
1439,1473
1468,1565
1671,1622
1819,1791
2153,1735
2473,1656
2519,1607
2290,1608
1997,1823
1637,1997
1424,1902
1363,1900
1427,1759
1434,1600
1416,1514
1430,1796
1430,1739
1432,1863
1432,1794
1415,1900
1428,1925
1417,2002
1430,1913
1417,1880
1430,1624
1413,1628
1441,1613
1430,1811
1431,1775
1445,1757
1456,1535
1460,1569
1437,1492
1445,1574
1444,1659
1443,1619
1432,1504
1455,1583
1453,1686
1454,1713
1445,1748
1462,1628
1443,1535
1456,1538
1460,1573
1466,1674
1464,1487
1462,1568
1490,1583
1477,1460
1477,1521
1490,1519
1478,1636
1481,1580
1469,1592
1478,1604
1480,1545
1458,1596
1483,1565
1516,1718
1483,1529
1514,1667
1469,1647
1477,1637
1469,1529
1457,1531
1463,1485
1455,1646
1469,1730
1466,1643
1460,1641
1452,1411
1455,1455
1433,1595
1437,1658
1432,1656
1432,1709
1443,1732
1422,1543
1432,1555
1452,1498
1444,1502
1440,1543
1453,1513
1443,1619
1457,1504
1455,1529
1452,1543
1445,1665
1440,1656
1440,1502
1456,1574
1439,1513
1433,1669
1433,1682
1441,1775
1443,1555
1455,1431
1463,1494
1453,1659
1457,1622
1463,1733
1453,1611
1433,1403
1441,1355
1455,1504
1453,1591
1452,1644
1452,1583
1445,1636
1462,1628
1440,1700
1460,1681
1457,1768
1455,1643
1445,1671
1462,1656
1453,1569
1457,1406
1454,1540
1453,1664
1440,1686
1445,1724
1455,1607
1452,1474
1443,1385
1454,1523
1456,1557
1439,1580
1455,1567
1455,1514
1455,1478
1437,1369
1460,1411
1456,1366
1458,1528
1453,1498
1455,1711
1455,1830
1483,2106
1462,2479
1478,2880
1469,3048
1468,2697
1473,2367
1471,1874
1477,1445
1474,1385
1477,1498
1468,1445
1456,1434
1453,1598
1460,1490
1455,1516
1463,1441
1464,1526
1456,1483
1455,1528
1463,1453
1466,1516
1463,1531
1462,1469
1463,1428
1456,1456
1452,1411
1456,1385
1445,1433
1452,1478
1456,1596
1469,1583
1572,1671
1694,1492
2035,1619
2443,1615
2590,1597
2624,1497
2392,1543
1847,1677
1544,1689
1377,1569
1416,1689
1468,1543
1437,1541
1439,1498
1432,1709
1440,1750
1439,1718
1445,1704
1445,1820
1441,1709
1441,1611
1440,1674
1455,1820
1437,1741
1457,1849
1440,1826
1437,1730
1441,1596
1453,1676
1445,1671
1433,1611
1453,1812
1452,1709
1440,1496
1462,1411
1455,1484
1463,1604
1463,1611
1469,1695
1460,1636
1467,1565
1462,1470
1470,1469
1463,1462
1483,1483
1460,1544
1504,1315
1474,1374
1467,1303
1490,1538
1467,1513
1516,1621
1490,1478
1531,1665
1488,1538
1483,1508
1578,1609
1595,1609
1588,1518
1609,1604
1624,1466
1583,1596
1516,1381
1457,1485
1463,1377
1469,1424
1455,1381
1466,1521
1462,1619
1455,1676
1456,1452
1455,1534
1424,1432
1457,1548
1455,1574
1466,1624
1462,1543
1462,1528
1460,1555
1454,1445
1457,1303
1457,1385
1457,1330
1452,1379
1464,1419
1458,1569
1463,1644
1457,1664
1463,1583
1456,1516
1455,1514
1443,1544
1458,1466
1445,1506
1468,1529
1460,1365
1469,1292
1457,1349
1460,1439
1468,1484
1466,1607
1445,1700
1466,1299
1469,1674
1463,1415
1456,1401
1463,1483
1469,1521
1455,1468
1456,1303
1456,1351
1463,1469
1455,1406
1469,1456
1467,1548
1466,1469
1460,1468
1474,1544
1455,1644
1452,1483
1457,1490
1469,1483
1445,1411
1471,1441
1463,1377
1469,1490
1469,1456
1469,1508
1467,1607
1462,1433
1453,1302
1457,1305
1462,1357
1466,1285
1462,1357
1470,1361
1457,1411
1453,1236
1460,1290
1460,1285
1474,1202
1467,1406
1477,1509
1471,1775
1469,1975
1478,2482
1483,2741
1462,2943
1481,2700
1485,2287
1473,1805
1468,1462
1531,1323
1492,1391
1488,1391
1469,1383
1456,1309
1478,1441
1469,1369
1473,1406
1466,1339
1457,1273
1455,1258
1470,1377
1466,1483
1467,1426
1462,1357
1466,1265
1447,1411
1452,1306
1462,1401
1490,1377
1591,1428
1803,1300
2210,1473
2529,1393
2739,1338
2742,1441
2361,1516
1925,1582
1547,1535
1396,1440
1416,1485
1444,1385
1453,1462
1441,1548
1440,1638
1437,1607
1453,1580
1440,1569
1439,1664
1413,1412
1441,1538
1422,1572
1439,1516
1454,1607
1455,1682
1452,1617
1437,1785
1456,1595
1440,1803
1447,1674
1463,1573
1470,1552
1443,1591
1456,1569
1456,1708
1456,1607
1453,1490
1445,1428
1473,1469
1468,1417
1471,1432
1527,1485
1504,1466
1476,1415
1468,1468
1504,1426
1496,1580
1508,1488
1547,1419
1585,1424
1588,1415
1582,1485
1584,1488
1545,1473
1628,1369
1649,1303
1636,1353
1538,1492
1533,1439
1566,1604
1592,1548
1580,1453
1642,1319
1590,1379
1513,1416
1453,1468
1445,1516
1445,1490
1457,1416
1443,1381
1444,1437
1443,1560
1462,1478
1452,1452
1453,1548
1452,1413
1433,1506
1444,1411
1440,1456
1441,1432
1456,1456
1444,1526
1441,1503
1456,1351
1454,1483
1456,1534
1439,1533
1441,1483
1443,1518
1457,1508
1439,1573
1460,1419
1437,1559
1456,1597
1445,1490
1456,1516
1455,1474
1460,1494
1445,1494
1455,1543
1441,1635
1441,1508
1445,1506
1428,1488
1445,1494
1445,1557
1452,1580
1445,1569
1471,1445
1456,1426
1484,1689
1445,1583
1443,1572
1453,1695
1462,1572
1443,1560
1455,1641
1452,1568
1455,1552
1441,1492
1455,1620
1432,1648
1445,1580
1445,1494
1445,1494
1445,1534
1443,1401
1468,1552
1445,1440
1456,1402
1477,1555
1452,1541
1456,1433
1443,1445
1474,1488
1463,1508
1463,1518
1457,1463
1453,1540
1463,1619
1456,1861
1462,2407
1481,2521
1470,2815
1462,2750
1471,2302
1460,2024
1473,1713
1462,1456
1483,1369
1455,1579
1466,1463
1469,1588
1445,1470
1455,1433
1455,1385
1456,1419
1439,1483
1455,1440
1454,1443
1455,1535
1452,1557
1444,1544
1437,1492
1457,1574
1441,1385
1462,1413
1518,1417
1689,1381
1991,1534
2337,1445
2627,1591
2596,1555
2389,1460
1965,1469
1596,1588
1391,1580
1370,1582
1432,1572
1442,1531
1428,1575
1424,1748
1416,1700
1439,1615
1428,1569
1437,1646
1424,1721
1428,1555
1428,1714
1440,1733
1424,1698
1432,1641
1428,1733
1406,1763
1433,1682
1437,1730
1433,1719
1430,1700
1440,1686
1440,1686
1453,1741
1455,1615
1483,1664
1455,1600
1440,1548
1440,1444
1440,1483
1441,1514
1445,1607
1513,1582
1483,1573
1458,1562
1456,1485
1441,1463
1456,1566
1490,1468
1534,1444
1573,1462
1521,1473
1580,1428
1562,1513
1534,1393
1547,1535
1535,1406
1583,1379
1592,1508
1566,1531
1590,1462
1523,1583
1488,1533
1483,1562
1454,1583
1433,1615
1440,1473
1473,1490
1463,1565
1431,1470
1457,1463
1441,1494
1430,1490
1441,1514
1441,1473
1433,1624
1455,1548
1442,1504
1437,1391
1428,1467
1424,1370
1432,1373
1440,1467
1424,1506
1441,1528
1422,1538
1440,1463
1433,1445
1441,1480
1433,1508
1424,1444
1437,1490
1435,1412
1452,1502
1433,1492
1441,1377
1443,1396
1440,1464
1440,1406
1445,1428
1428,1353
1440,1531
1429,1357
1440,1591
1440,1509
1443,1430
1440,1379
1428,1445
1440,1503
1443,1498
1441,1629
1428,1621
1432,1637
1432,1574
1460,1686
1445,1624
1452,1521
1443,1544
1445,1578
1440,1533
,1494
,1422
,1443
,1503
,1411
,1483
,1488
,1437
,1440
,1502
,1369
,1312
,1377
,1367
,1439
,1494
,1494
,1543
,1718
,2076
,2422
,2703
,2728
,2581
,2214
,1770
,1508
,1466
,1485
,1343
,1317
,1344
,1416
,1426
,1480
,1369
,1379
,1439
,1509
,1363
,1355
,1319
,1404
,1353
,1523
,1463
,1413
,1381
,1502
,1521
,1477
,1488
,1452
,1415
,1362
,1494
,1516
,1456
,1523
,1561
,1514
,1456
,1560
,1615
,1498
,1634
,1573
,1621
,1644
,1670
,1708
,1682
,1578
,1733
,1679
,1647
,1578
,1621
,1509
,1676
,1642
,1700
,1591
,1526
,1477
,1531
,1404
,1383
,1463
,1416
,1432
,1413
,1387
,1303
,1379
,1490
,1317
,1428
,1353
,1456
,1377
,1355
,1477
,1467
,1433
,1411
,1428
,1357
,1385
,1455
,1404
,1294
,1393
,1385
,1401
,1452
,1379
,1395
,1395
,1455
,1492
,1490
,1569
,1366
,1457
,1290
,1294
,1468
,1351
,1411
,1323
,1422
,1336
,1411
,1343
,1274
,1383
,1365
,1583
,1492
,1387
,1395
,1331
,1267
,1330
,1393
,1289
,1263
,1381
,1470
,1341
,1343
,1455
,1330
,1344
,1365
,1473
,1391
,1443
,1474
,1531
,1426
,1462
,1569
,1419
,1379
,1592
,1490
,1468
,1490
,1365
,1411
,1349
,1344
,1441
,1370
,1308
,1355
,1265
,1361
,1411
,1343
,1292
,1259
,1415
,1411
,1595
,1910
,2326
,2580
,2703
,2703
,2400
,1902
,1591
,1366
,1357
,1239
,1456
,1321
,1297
,1365
,1404
,1317
,1343
,1276
,1330
,1300
,1365
,1278
,1325
,1302
,1290
,1406
,1323
,1272
,1319
,1488
,1323
,1441
,1325
,1365
,1352
,1474
,1469
,1413
,1402
,1492
,1396
,1433
,1508
,1429
,1526
,1533
,1531
,1610
,1538
,1588
,1686
,1568
,1463
,1528
,1561
,1490
,1583
,1635
,1597
,1559
,1665
,1508
,1478
,1415
,1464
,1396
,1433
,1463
,1453
,1396
,1266
,1341
,1289
,1294
,1428
,1380
,1391
,1163
,1338
,1388
,1565
,1433
,1341
,1275
,1219
,1290
,1317
,1344
,1290
,1456
,1365
,1260
,1365
,1381
,1302
,1331
,1292
,1404
,1380
,1377
,1411
,1308
,1251
,1312
,1362
,1342
,1416
,1365
,1289
,1357
,1352
,1434
,1260
,1419
,1365
,1370
,1303
,1204
,1339
,1251
,1387
,1406
,1419
,1323
,1379
,1339
,1413
,1336
,1474
,1289
,1325
,1274
,1407
,1308
,1370
,1361
,1393
,1379
,1309
,1509
,1377
,1452
,1452
,1480
,1508
,1409
,1497
,1538
,1481
,1521
,1391
,1323
,1216
,1321
,1323
,1228
,1361
,1361
,1361
,1352
,1316
,1341
,1281
,1308
,1317
,1290
,1311
,1519
,1695
,1985
,2302
,2703
,2785
,2512
,2104
,1649
,1383
,1263
,1331
,1311
,1265
,1211
,1306
,1279
,1290
,1305
,1330
,1290
,1275
,1335
,1341
,1349
,1365
,1380
,1338
,1251
,1341
,1323
,1268
,1362
,1428
,1397
,1353
,1361
,1417
,1343
,1355
,1415
,1419
,1396
,1543
,1588
,1455
,1509
,1494
,1483
,1516
,1565
,1618
,1529
,1498
,1521
,1478
,1622
,1624
,1666
,1579
,1557
,1513
,1569
,1513
,1509
,1535
,1441
,1387
,1490
,1424
,1395
,1417
,1437
,1480
,1392
,1330
,1411
,1294
,1338
,1299
,1411
,1292
,1326
,1393
,1349
,1275
,1396
,1403
,1365
,1456
,1474
,1426
,1540
,1239
,1310
,1251
,1290
,1440
,1352
,1299
,1351
,1330
,1361
,1409
,1315
,1429
,1355
,1481
,1565
,1409
,1325
,1390
,1351
,1367
,1377
,1311
,1379
,1323
,1406
,1463
,1369
,1290
,1464
,1353
,1299
,1265
,1452
,1379
,1395
,1456
,1406
,1369
,1443
,1429
,1366
,1396
,1393
,1498
,1457
,1428
,1406
,1426
,1375
,1492
,1490
,1483
,1429
,1591
,1519
,1529
,1540
,1521
,1427
,1401
,1393
,1413
,1396
,1335
,1494
,1377
,1343
,1292
,1325
,1325
,1432
,1352
,1390
,1285
,1498
,1483
,1874
,2080
,2516
,2782
,2636
,2480
,2142
,1595
,1369
,1338
,1363
,1369
,1445
,1404
,1422
,1396
,1402
,1377
,1406
,1351
,1323
,1213
,1391
,1415
,1462
,1428
,1373
,1458
,1385
,1426
,1402
,1477
,1393
,1494
,1456
,1440
,1457
,1375
,1477
,1504
,1460
,1456
,1578
,1480
,1531
,1610
,1592
,1621
,1713
,1647
,1604
,1600
,1711
,1684
,1682
,1656
,1684
,1596
,1646
,1578
,1646
,1569
,1540
,1506
,1543
,1411
,1540
,1519
,1428
,1440
,1452
,1396
,1460
,1463
,1504
,1463
,1406
,1473
,1331
,1387
,1365
,1466
,1417
,1330
,1469
,1437
,1379
,1342
,1415
,1432
,1424
,1486
,1466
,1379
,1294
,1349
,1440
,1492
,1565
,1580
,1411
,1406
,1323
,1393
,1302
,1419
,1392
,1462
,1440
,1406
,1393
,1419
,1306
,1422
,1353
,1351
,1412
,1432
,1419
,1339
,1401
,1430
,1506
,1415
,1545
,1416
,1387
,1424
,1385
,1362
,1445
,1439
,1419
,1316
,1433
,1426
,1357
,1460
,1416
,1468
,1379
,1452
,1445
,1509
,1518
,1562
,1494
,1533
,1488
,1604
,1516
,1440
,1552
,1361
,1456
,1294
,1470
,1406
,1379
,1432
,1437
,1401
,1369
,1409
,1367
,1262
,1279
,1406
,1352
,1494
,1592
,1772
,2114
,2492
,2733
,2823
,2534
,2252
,1775
,1416
,1222
,1366
,1309
,1381
,1422
,1400
,1317
,1400
,1365
,1403
,1292
,1315
,1463
,1419
,1426
,1299
,1228
,1204
,1381
,1469
,1411
,1367
,1496
,1473
,1445
,1444
,1432
,1331
,1377
,1413
,1580
,1568
,1577
,1504
,1483
,1455
,1445
,1621
,1578
,1569
,1565
,1641
,1565
,1579
,1674
,1592
,1659
,1732
,1658
,1583
,1592
,1621
,1553
,1611
,1523
,1580
,1519
,1473
,1406
,1317
,1306
,1380
,1474
,1492
,1471
,1503
,1467
,1355
,1417
,1396
,1357
,1325
,1443
,1361
,1292
,1388
,1441
,1462
,1428
,1424
,1406
,1373
,1369
,1452
,1326
,1335
,1443
,1531
,1473
,1383
,1330
,1287
,1386
,1401
,1379
,1326
,1281
,1457
,1470
,1516
,1383
,1432
,1286
,1377
,1422
,1406
,1361
,1377
,1365
,1430
,1419
,1476
,1377
,1385
,1191
,1485
,1428
,1428
,1440
,1373
,1365
,1326
,1344
,1426
,1381
,1377
,1382
,1315
,1422
,1302
,1480
,1419
,1351
,1392
,1467
,1431
,1502
,1488
,1424
,1445
,1508
,1540
,1516
,1467
,1535
,1508
,1396
,1452
,1476
,1385
,1466
,1377
,1338
,1272
,1383
,1412
,1393
,1310
,1426
,1388
,1316
,1328
,1377
,1265
,1374
,1443
,1775
,2028
,2430
,2725
,2823
,2584
,2288
,1878
,1516
,1339
,1387
,1417
,1336
,1401
,1370
,1280
,1275
,1387
,1309
,1275
,1379
,1379
,1325
,1309
,1330
,1401
,1387
,1377
,1388
,1365
,1326
,1488
,1406
,1300
,1430
,1437
,1430
,1462
,1462
,1428
,1411
,1483
,1473
,1544
,1498
,1590
,1609
,1611
,1518
,1494
,1454
,1569
,1552
,1704
,1565
,1665
,1725
,1656
,1596
,1650
,1531
,1561
,1566
,1555
,1597
,1494
,1426
,1419
,1373
,1379
,1369
,1419
,1338
,1352
,1388
,1488
,1416
,1463
,1319
,1351
,1330
,1411
,1375
,1355
,1379
,1403
,1357
,1374
,1363
,1387
,1379
,1339
,1456
,1460
,1355
,1362
,1463
,1325
,1317
,1352
,1391
,1370
,1430
,1453
,1351
,1328
,1365
,1388
,1406
,1428
,1445
,1407
,1297
,1365
,1343
,1357
,1343
,1377
,1393
,1379
,1325
,1403
,1385
,1377
,1379
,1483
,1457
,1369
,1287
,1281
,1234
,1352
,1357
,1321
,1377
,1402
,1375
,1483
,1325
,1473
,1379
,1316
,1466
,1426
,1424
,1391
,1440
,1471
,1353
,1456
,1477
,1434
,1381
,1365
,1467
,1381
,1516
,1508
,1492
,1419
,1483
,1426
,1379
,1422
,1462
,1388
,1393
,1406
,1341
,1429
,1299
,1413
,1325
,1292
,1383
,1343
,1309
,1323
,1379
,1416
,1569
,1794
,2205
,2475
,2685
,2671
,2323
,1904
,1568
,1432
,1266
,1297
,1331
,1262
,1325
,1305
,1417
,1311
,1309
,1355
,1361
,1393
,1361
,1396
,1374
,1393
,1498
,1369
,1352
,1303
,1316
,1331
,1339
,1385
,1478
,1466
,1367
,1445
,1463
,1390
,1453
,1514
,1582
,1379
,1457
,1478
,1439
,1513
,1460
,1577
,1509
,1635
,1695
,1634
,1568
,1623
,1538
,1538
,1709
,1676
,1718
,1622
,1519
,1478
,1365
,1388
,1452
,1419
,1402
,1456
,1437
,1455
,1359
,1355
,1373
,1338
,1429
,1361
,1339
,1340
,1393
,1428
,1379
,1308
,1323
,1325
,1289
,1375
,1344
,1365
,1308
,1396
,1393
,1445
,1369
,1454
,1338
,1430
,1393
,1504
,1393
,1416
,1382
,1258
,1223
,1365
,1467
,1330
,1404
,1330
,1365
,1379
,1352
,1453
,1377
,1308
,1369
,1336
,1306
,1325
,1388
,1404
,1341
,1366
,1321
,1299
,1305
,1321
,1445
,1287
,1396
,1326
,1297
,1424
,1485
,1426
,1326
,1311
,1381
,1300
,1285
,1336
,1292
,1419
,1365
,1494
,1483
,1385
,1483
,1433
,1518
,1496
,1546
,1335
,1381
,1528
,1474
,1474
,1366
,1415
,1341
,1352
,1415
,1349
,1390
,1361
,1417
,1377
,1375
,1323
,1379
,1284
,1251
,1253
,1318
,1387
,1544
,1853
,2176
,2372
,2782
,2619
,2263
,1840
,1573
,1309
,1273
,1370
,1305
,1352
,1317
,1352
,1299
,1254
,1335
,1357
,1365
,1361
,1290
,1349
,1401
,1338
,1432
,1338
,1317
,1355
,1315
,1266
,1370
,1483
,1396
,1352
,1353
,1306
,1452
,1393
,1492
,1430
,1413
,1478
,1622
,1591
,1547
,1559
,1463
,1437
,1518
,1630
,1615
,1628
,1621
,1632
,1478
,1624
,1656
,1632
,1567
,1596
,1648
,1583
,1543
,1526
,1485
,1352
,1388
,1443
,1338
,1292
,1374
,1338
,1365
,1361
,1437
,1365
,1316
,1406
,1338
,1349
,1326
,1353
,1406
,1300
,1335
,1357
,1302
,1385
,1331
,1365
,1316
,1339
,1393
,1498
,1328
,1357
,1299
,1263
,1366
,1323
,1401
,1413
,1484
,1437
,1323
,1335
,1387
,1370
,1251
,1365
,1311
,1383
,1290
,1361
,1335
,1285
,1351
,1374
,1370
,1331
,1411
,1400
,1285
,1373
,1278
,1386
,1355
,1419
,1351
,1361
,1289
,1370
,1380
,1323
,1429
,1417
,1338
,1276
,1415
,1373
,1331
,1325
,1379
,1374
,1341
,1396
,1478
,1424
,1385
,1417
,1428
,1502
,1543
,1514
,1422
,1351
,1440
,1406
,1342
,1432
,1417
,1373
,1343
,1319
,1429
,1331
,1265
,1393
,1336
,1287
,1303
,1391
,1323
,1331
,1379
,1292
,1338
,1547
,1788
,2235
,2468
,2788
,2656
,2288
,1883
,1526
,1260
,1234
,1349
,1319
,1343
,1311
,1409
,1367
,1305
,1355
,1396
,1381
,1325
,1377
,1302
,1254
,1381
,1366
,1323
,1289
,1441
,1462
,1411
,1366
,1361
,1246
,1279
,1478
,1506
,1426
,1400
,1442
,1428
,1469
,1488
,1480
,1506
,1492
,1580
,1529
,1595
,1560
,1664
,1545
,1518
,1624
,1605
,1590
,1628
,1610
,1569
,1559
,1628
,1547
,1427
,1504
,1444
,1444
,1383
,1431
,1453
,1428
,1379
,1409
,1403
,1388
,1437
,1369
,1375
,1330
,1366
,1353
,1325
,1315
,1396
,1335
,1352
,1422
,1393
,1377
,1335
,1406
,1339
,1267
,1441
,1341
,1404
,1477
,1428
,1357
,1308
,1318
,1294
,1335
,1328
,1467
,1369
,1323
,1377
,1424
,1387
,1388
,1366
,1419
,1390
,1268
,1456
,1292
,1233
,1302
,1335
,1374
,1369
,1323
,1428
,1357
,1483
,1400
,1380
,1344
,1409
,1409
,1308
,1455
,1344
,1365
,1292
,1305
,1379
,1263
,1379
,1361
,1289
,1328
,1316
,1561
,1429
,1439
,1439
,1455
,1365
,1432
,1430
,1456
,1494
,1578
,1555
,1422
,1401
,1466
,1385
,1361
,1490
,1365
,1361
,1254
,1365
,1351
,1299
,1331
,1428
,1379
,1406
,1316
,1303
,1201
,1316
,1417
,1590
,1819
,2212
,2453
,2702
,2750
,2421
,2083
,1514
,1365
,1285
,1352
,1369
,1379
,1387
,1352
,1419
,1294
,1369
,1292
,1453
,1357
,1328
,1365
,1330
,1331
,1299
,1404
,1401
,1370
,1375
,1397
,1323
,1260
,1455
,1413
,1374
,1478
,1395
,1428
,1351
,1344
,1445
,1538
,1557
,1548
,1665
,1565
,1646
,1656
,1529
,1490
,1611
,1667
,1641
,1574
,1686
,1572
,1648
,1705
,1647
,1468
,1548
,1518
,1531
,1529
,1445
,1437
,1464
,1506
,1426
,1437
,1278
,1328
,1488
,1430
,1419
,1504
,1373
,1312
,1266
,1428
,1377
,1379
,1393
,1381
,1294
,1377
,1462
,1402
,1411
,1428
,1417
,1338
,1303
,1344
,1379
,1480
,1453
,1466
,1440
,1402
,1428
,1387
,1352
,1411
,1411
,1441
,1430
,1370
,1401
,1369
,1393
,1437
,1388
,1386
,1339
,1385
,1388
,1391
,1503
,1490
,1338
,1365
,1370
,1338
,1452
,1498
,1396
,1366
,1391
,1526
,1518
,1357
,1416
,1470
,1402
,1428
,1453
,1396
,1380
,1432
,1462
,1478
,1480
,1504
,1467
,1406
,1646
,1538
,1503
,1468
,1588
,1483
,1533
,1474
,1481
,1415
,1437
,1463
,1547
,1361
,1390
,1370
,1424
,1424
,1441
,1430
,1323
,1316
,1370
,1488
,1637
,1821
,2286
,2529
,2785
,2805
,2475
,2024
,1604
,1430
,1325
,1381
,1415
,1504
,1363
,1352
,1453
,1533
,1377
,1445
,1406
,1357
,1349
,1416
,1473
,1454
,1509
,1496
,1466
,1463
,1561
,1513
,1484
,1457
,1488
,1441
,1443
,1566
,1596
,1557
,1609
,1590
,1569
,1533
,1607
,1724
,1709
,1709
,1705
,1683
,1637
,1732
,1800
,1781
,1750
,1823
,1705
,1739
,1567
,1679
,1636
,1697
,1763
,1794
,1609
,1615
,1637
,1590
,1600
,1591
,1686
,1545
,1566
,1531
,1480
,1470
,1445
,1478
,1473
,1464
,1577
,1560
,1541
,1561
,1634
,1552
,1504
,1564
,1618
,1565
,1513
,1597
,1578
,1457
,1516
,1521
,1584
,1506
,1599
,1473
,1559
,1557
,1572
,1569
,1607
,1628
,1622
,1533
,1437
,1580
,1555
,1572
,1566
,1568
,1483
,1488
,1468
,1609
,1566
,1637
,1597
,1533
,1577
,1557
,1619
,1535
,1590
,1629
,1538
,1541
,1624
,1584
,1555
,1584
,1577
,1569
,1503
,1572
,1615
,1508
,1569
,1665
,1772
,1681
,1713
,1735
,1711
,1693
,1682
,1704
,1705
,1673
,1689
,1578
,1567
,1632
,1600
,1567
,1531
,1597
,1528
,1513
,1600
,1584
,1580
,1531
,1476
,1538
,1419
,1574
,1748
,1897
,2233
,2549
,2861
,2882
,2762
,2347
,1963
,1596
,1432
,1445
,1440
,1504
,1595
,1460
,1452
,1352
,1659
,1615
,1718
,1713
,1458
,1264
,1365
,1485
,1757
,1762
,1900
,1819
,1622
,1463
,1317
,1700
,1670
,1844
,1869
,1718
,1782
,1708
,1730
,1732
,1748
,1886
,1800
,1820
,1914
,1875
,1785
,1843
,1796
,1785
,1810
,1828
,1860
,1842
,1891
,1830
,1838
,1775
,1979
,1875
,1955
,1801
,1946
,1862
,1869
,1803
,1725
,1548
,1621
,1611
,1723
,1540
,1441
,1490
,1582
,1723
,1781
,1838
,1503
,1583
,1565
,1669
,1821
,1741
,1686
,1629
,1593
,1671
,1526
,1485
,1590
,1753
,1613
,1557
,1597
,1682
,1658
,1712
,1790
,1588
,1583
,1622
,1682
,1643
,1670
,1681
,1655
,1647
,1673
,1669
,1617
,1437
,1498
,1624
,1503
,1665
,1739
,1557
,1488
,1538
,1609
,1577
,1615
,1671
,1580
,1560
,1659
,1658
,1607
,1600
,1595
,1521
,1600
,1667
,1600
,1634
,1533
,1634
,1697
,1597
,1607
,1597
,1636
,1763
,1745
,1744
,1610
,1508
,1691
,1666
,1739
,1785
,1732
,1644
,1592
,1413
,1568
,1433
,1671
,1709
,1555
,1566
,1573
,1508
,1456
,1531
,1538
,1528
,1390
,1560
,1636
,1837
,2320
,2769
,2929
,2900
,2639
,2351
,1895
,1698
,1611
,1486
,1480
,1553
,1490
,1480
,1494
,1490
,1453
,1375
,1470
,1494
,1607
,1565
,1543
,1533
,1580
,1478
,1568
,1521
,1480
,1557
,1533
,1516
,1457
,1588
,1519
,1488
